seed,domain,lead,channel,mu_pre_nfh,mu_post_nfh,mu_pre_dom,mu_post_dom,shift_pre,shift_post,d_mu,logrms_pre,logrms_post
0,ptbxl,ii,0,0.3120241165161133,0.23184239864349365,0.2949415445327759,0.21322312951087952,-0.017082571983337402,-0.018619269132614136,-0.08171841502189636,-0.054288752377033234,-0.05583840236067772
0,ptbxl,ii,1,0.3060482442378998,0.32812052965164185,0.21209193766117096,0.21226853132247925,-0.09395630657672882,-0.1158519983291626,0.00017659366130828857,-0.32504957914352417,-0.3002820909023285
0,ptbxl,ii,2,0.3083800673484802,0.47989410161972046,0.09750720113515854,0.2389039397239685,-0.2108728587627411,-0.24099016189575195,0.14139673113822937,-0.9428234100341797,-0.6733579039573669
0,ptbxl,ii,3,0.24543273448944092,0.13251149654388428,0.22294320166110992,0.10892314463853836,-0.022489532828330994,-0.023588351905345917,-0.11402005702257156,-0.017128897830843925,-0.019997620955109596
0,ptbxl,ii,4,0.5622727870941162,0.5630637407302856,0.5794467926025391,0.5859031677246094,0.01717400550842285,0.02283942699432373,0.0064563751220703125,0.03135721758008003,0.03406801447272301
0,ptbxl,ii,5,0.5771350264549255,0.5360245704650879,0.558482825756073,0.5114439129829407,-0.01865220069885254,-0.024580657482147217,-0.047038912773132324,-0.04487888142466545,-0.053804997354745865
0,ptbxl,ii,6,0.31770676374435425,0.1538832187652588,0.3534933924674988,0.19238364696502686,0.03578662872314453,0.038500428199768066,-0.16110974550247192,0.0482284314930439,-0.014391911216080189
0,ptbxl,ii,7,0.20884239673614502,0.3539891839027405,0.0549723282456398,0.150338813662529,-0.15387007594108582,-0.2036503702402115,0.09536648541688919,-1.089257836341858,-0.8684030175209045
0,ptbxl,ii,8,0.47256189584732056,0.5897551774978638,0.4386698603630066,0.5466085076332092,-0.033892035484313965,-0.04314666986465454,0.10793864727020264,-0.11249864846467972,-0.11202283948659897
0,ptbxl,ii,9,0.2580685019493103,0.38734230399131775,0.12035387009382248,0.18350337445735931,-0.13771462440490723,-0.20383892953395844,0.06314950436353683,-0.6089827418327332,-0.5199414491653442
0,ptbxl,ii,10,0.2968840003013611,0.43575164675712585,0.4865875244140625,0.6363007426261902,0.18970352411270142,0.20054909586906433,0.14971321821212769,0.4292919337749481,0.3699716329574585
0,ptbxl,ii,11,0.24848416447639465,0.19196079671382904,0.31866320967674255,0.2772188186645508,0.0701790452003479,0.08525802195072174,-0.04144439101219177,0.18072718381881714,0.1367463618516922
0,ptbxl,ii,12,0.3751019835472107,0.3368920683860779,0.25485798716545105,0.1667085736989975,-0.12024399638175964,-0.17018349468708038,-0.08814941346645355,-0.34591588377952576,-0.3263574242591858
0,ptbxl,ii,13,0.4749389886856079,0.3755943477153778,0.5008271932601929,0.4042816758155823,0.02588820457458496,0.028687328100204468,-0.0965455174446106,0.026262126863002777,0.013639586046338081
0,ptbxl,ii,14,0.22190141677856445,0.0061494940891861916,0.4206896424293518,0.2909419536590576,0.19878822565078735,0.2847924530506134,-0.1297476887702942,0.5449842810630798,0.37063834071159363
0,ptbxl,ii,15,0.17495672404766083,0.06339144706726074,0.18964605033397675,0.08291196823120117,0.014689326286315918,0.01952052116394043,-0.10673408210277557,0.07931677252054214,0.049089573323726654
0,ptbxl,ii,16,0.2608567178249359,0.24439500272274017,0.6357266902923584,0.6228364706039429,0.3748699724674225,0.3784414529800415,-0.012890219688415527,0.8175442814826965,0.8031550645828247
0,ptbxl,ii,17,0.5596625208854675,0.7599889039993286,0.582671046257019,0.7887930274009705,0.023008525371551514,0.028804123401641846,0.20612198114395142,0.0488974004983902,0.046481724828481674
0,ptbxl,ii,18,0.41770464181900024,0.3213237524032593,0.41440489888191223,0.3168107569217682,-0.0032997429370880127,-0.004512995481491089,-0.09759414196014404,-0.022811053320765495,-0.03187502175569534
0,ptbxl,ii,19,0.2796734869480133,0.30971482396125793,0.11720829457044601,0.11439904570579529,-0.1624651849269867,-0.19531577825546265,-0.0028092488646507263,-0.6339278221130371,-0.5617798566818237
0,ptbxl,ii,20,0.3500036895275116,0.36275315284729004,0.636072039604187,0.6711201667785645,0.2860683500766754,0.3083670139312744,0.03504812717437744,0.43528541922569275,0.40649741888046265
0,ptbxl,ii,21,0.24594959616661072,0.11196042597293854,0.20744071900844574,0.0724065974354744,-0.03850887715816498,-0.03955382853746414,-0.13503411412239075,-0.13989517092704773,-0.18039089441299438
0,ptbxl,ii,22,0.47868332266807556,0.629431962966919,0.41196539998054504,0.5465314388275146,-0.06671792268753052,-0.0829005241394043,0.1345660388469696,-0.10191214084625244,-0.08729886263608932
0,ptbxl,ii,23,0.27874743938446045,0.16841641068458557,0.34776148200035095,0.25193849205970764,0.0690140426158905,0.08352208137512207,-0.09582298994064331,0.16735972464084625,0.1322343647480011
0,ptbxl,ii,24,0.29481467604637146,0.3808339536190033,0.09187562018632889,0.11253369599580765,-0.20293906331062317,-0.26830026507377625,0.02065807580947876,-0.9810842275619507,-0.8961870670318604
0,ptbxl,ii,25,0.20752844214439392,0.185481458902359,0.13622382283210754,0.1130894124507904,-0.07130461931228638,-0.0723920464515686,-0.02313441038131714,-0.3168606758117676,-0.29862532019615173
0,ptbxl,ii,26,0.24357378482818604,0.19343100488185883,0.14500533044338226,0.07815974205732346,-0.09856845438480377,-0.11527126282453537,-0.06684558838605881,-0.37109893560409546,-0.34737539291381836
0,ptbxl,ii,27,0.3069937825202942,0.3601982593536377,0.30118054151535034,0.35135138034820557,-0.005813241004943848,-0.008846879005432129,0.050170838832855225,-0.029242079704999924,-0.029627518728375435
0,ptbxl,ii,28,0.4035845696926117,0.1782962679862976,0.2559339106082916,0.014417923055589199,-0.14765065908432007,-0.16387835144996643,-0.24151599407196045,-0.37949222326278687,-0.3074539601802826
0,ptbxl,ii,29,0.6002222299575806,0.42810389399528503,0.5967550873756409,0.4238646626472473,-0.0034671425819396973,-0.00423923134803772,-0.17289042472839355,-0.003145689843222499,-0.010533180087804794
0,ptbxl,ii,30,0.36257967352867126,0.4948354959487915,0.46728184819221497,0.641889214515686,0.1047021746635437,0.14705371856689453,0.17460736632347107,0.24256201088428497,0.23266874253749847
0,ptbxl,ii,31,0.6156256198883057,0.6566649079322815,0.5382081866264343,0.5626976490020752,-0.07741743326187134,-0.0939672589302063,0.02448946237564087,-0.15406623482704163,-0.16323210299015045
0,ptbxl,ii,32,0.23302114009857178,0.4645775556564331,0.18412809073925018,0.40105167031288147,-0.048893049359321594,-0.06352588534355164,0.2169235795736313,-0.1636773645877838,-0.11657394468784332
0,ptbxl,ii,33,0.3677225112915039,0.35863980650901794,0.28278759121894836,0.2669999599456787,-0.08493492007255554,-0.09163984656333923,-0.015787631273269653,-0.1911579966545105,-0.18978191912174225
0,ptbxl,ii,34,0.3851052224636078,0.24988186359405518,0.3117612600326538,0.1536376178264618,-0.07334396243095398,-0.09624424576759338,-0.15812364220619202,-0.15803059935569763,-0.11348051577806473
0,ptbxl,ii,35,0.5318697690963745,0.5505486726760864,0.5070785880088806,0.5167989730834961,-0.024791181087493896,-0.03374969959259033,0.009720385074615479,-0.08262334764003754,-0.09689164906740189
0,ptbxl,ii,36,0.38250285387039185,0.3640690743923187,0.31510791182518005,0.2905137538909912,-0.06739494204521179,-0.07355532050132751,-0.024594157934188843,-0.13706186413764954,-0.13420620560646057
0,ptbxl,ii,37,0.3766806125640869,0.5478407740592957,0.1865825653076172,0.32333263754844666,-0.19009804725646973,-0.224508136510849,0.13675007224082947,-0.559042751789093,-0.4720005393028259
0,ptbxl,ii,38,0.41710934042930603,0.4282507598400116,0.3672800362110138,0.364002525806427,-0.049829304218292236,-0.0642482340335846,-0.003277510404586792,-0.1388855278491974,-0.15040837228298187
0,ptbxl,ii,39,0.3240461051464081,0.5280656814575195,0.38320499658584595,0.5954197645187378,0.059158891439437866,0.06735408306121826,0.21221476793289185,0.15819378197193146,0.1311938762664795
0,ptbxl,ii,40,0.3283364474773407,0.5250279903411865,0.37481212615966797,0.5812162160873413,0.04647567868232727,0.056188225746154785,0.20640408992767334,0.10093943029642105,0.08519961684942245
0,ptbxl,ii,41,0.34046608209609985,0.6471823453903198,0.31148383021354675,0.6046919822692871,-0.0289822518825531,-0.042490363121032715,0.29320815205574036,-0.09231575578451157,-0.08506917208433151
0,ptbxl,ii,42,0.40249305963516235,0.5885404348373413,0.29678109288215637,0.44507715106010437,-0.10571196675300598,-0.14346328377723694,0.148296058177948,-0.24289073050022125,-0.21454137563705444
0,ptbxl,ii,43,0.39933204650878906,0.3747221827507019,0.3746691048145294,0.34309855103492737,-0.024662941694259644,-0.031623631715774536,-0.03157055377960205,-0.04978964105248451,-0.04328715801239014
0,ptbxl,ii,44,0.2973514795303345,0.3882971704006195,0.3343215882778168,0.43564873933792114,0.0369701087474823,0.047351568937301636,0.10132715106010437,0.12485595792531967,0.12348877638578415
0,ptbxl,ii,45,0.3117089867591858,0.2927103042602539,0.3702487647533417,0.3585466146469116,0.058539777994155884,0.06583631038665771,-0.011702150106430054,0.10206492245197296,0.07154538482427597
0,ptbxl,ii,46,0.49647626280784607,0.24075505137443542,0.36672377586364746,0.08647578209638596,-0.1297524869441986,-0.15427926182746887,-0.2802479863166809,-0.2404889017343521,-0.1996440589427948
0,ptbxl,ii,47,0.4299476742744446,0.6452504396438599,0.312127023935318,0.5035921335220337,-0.11782065033912659,-0.14165830612182617,0.1914651095867157,-0.22343789041042328,-0.18804849684238434
0,ptbxl,ii,48,0.42819643020629883,0.4987117052078247,0.34573307633399963,0.3876717686653137,-0.0824633538722992,-0.11103993654251099,0.04193869233131409,-0.1886516511440277,-0.18047669529914856
0,ptbxl,ii,49,0.3670603036880493,0.3322535753250122,0.33051085472106934,0.29196035861968994,-0.03654944896697998,-0.040293216705322266,-0.038550496101379395,-0.062203411012887955,-0.06038874760270119
0,ptbxl,ii,50,0.582837700843811,0.8132936358451843,0.29455438256263733,0.44212186336517334,-0.2882833182811737,-0.371171772480011,0.147567480802536,-0.55525141954422,-0.5049295425415039
0,ptbxl,ii,51,0.38347238302230835,0.198555588722229,0.3780384659767151,0.18996940553188324,-0.005433917045593262,-0.008586183190345764,-0.18806906044483185,-0.02680043876171112,-0.021485313773155212
0,ptbxl,ii,52,0.6723631620407104,0.7242827415466309,0.6630873680114746,0.7121241688728333,-0.00927579402923584,-0.012158572673797607,0.04903680086135864,-0.036228928714990616,-0.038815852254629135
0,ptbxl,ii,53,0.2838476300239563,0.25022855401039124,0.25748685002326965,0.21653209626674652,-0.026360780000686646,-0.033696457743644714,-0.04095475375652313,-0.08184671401977539,-0.07484883069992065
0,ptbxl,ii,54,0.32073596119880676,0.3085426688194275,0.056871432811021805,0.03648095577955246,-0.26386451721191406,-0.27206170558929443,-0.020390477031469345,-1.3676166534423828,-1.2649792432785034
0,ptbxl,ii,55,0.4441305994987488,0.579660177230835,0.45004594326019287,0.5825751423835754,0.005915343761444092,0.0029149651527404785,0.13252919912338257,-0.023125819861888885,-0.03380459547042847
0,ptbxl,ii,56,0.2515714168548584,0.43719884753227234,0.13226202130317688,0.27060434222221375,-0.11930939555168152,-0.1665945053100586,0.13834232091903687,-0.4678165912628174,-0.3585110902786255
0,ptbxl,ii,57,0.3283025920391083,0.22759024798870087,0.8399055600166321,0.7729180455207825,0.5116029977798462,0.5453277826309204,-0.06698751449584961,0.8761829733848572,0.7830321192741394
0,ptbxl,ii,58,0.39994189143180847,0.5130543112754822,0.2555089294910431,0.3510490357875824,-0.14443296194076538,-0.16200527548789978,0.0955401062965393,-0.38333168625831604,-0.3385198712348938
0,ptbxl,ii,59,0.4000285565853119,0.3801593780517578,0.3952915370464325,0.38079550862312317,-0.0047370195388793945,0.0006361305713653564,-0.014496028423309326,0.031988728791475296,0.05335244908928871
0,ptbxl,ii,60,0.4195220470428467,0.4214801788330078,0.37123122811317444,0.35010525584220886,-0.04829081892967224,-0.07137492299079895,-0.021125972270965576,-0.1278257966041565,-0.12649066746234894
0,ptbxl,ii,61,0.44323965907096863,0.4855983853340149,0.5326210260391235,0.5888413190841675,0.08938136696815491,0.10324293375015259,0.056220293045043945,0.12774471938610077,0.11475370079278946
0,ptbxl,ii,62,0.34969449043273926,0.2794068157672882,0.3510492742061615,0.27984967827796936,0.0013547837734222412,0.00044286251068115234,-0.07119959592819214,-0.01545206643640995,-0.01835780218243599
0,ptbxl,ii,63,0.23926810920238495,0.1202213391661644,0.1830296814441681,0.057331379503011703,-0.05623842775821686,-0.062889963388443,-0.1256982982158661,-0.18538598716259003,-0.1830105483531952
0,ptbxl,iii,0,0.401824414730072,0.6223015785217285,0.3196296691894531,0.5026305317878723,-0.0821947455406189,-0.1196710467338562,0.1830008625984192,-0.23900534212589264,-0.231855571269989
0,ptbxl,iii,1,0.32603368163108826,0.34491655230522156,0.7433218955993652,0.7983726859092712,0.417288213968277,0.4534561336040497,0.055050790309906006,0.6847902536392212,0.6679632067680359
0,ptbxl,iii,2,0.45882630348205566,0.3304438591003418,0.3289251923561096,0.18829496204853058,-0.12990111112594604,-0.14214889705181122,-0.14063023030757904,-0.29015442728996277,-0.30463945865631104
0,ptbxl,iii,3,0.3456413149833679,0.5099126100540161,0.2154347151517868,0.3260166645050049,-0.13020659983158112,-0.18389594554901123,0.11058194935321808,-0.425606906414032,-0.39212167263031006
0,ptbxl,iii,4,0.28912782669067383,0.2843513786792755,0.32351237535476685,0.32179757952690125,0.03438454866409302,0.03744620084762573,-0.0017147958278656006,0.06483647972345352,0.05588599666953087
0,ptbxl,iii,5,0.4517326056957245,0.3245226740837097,0.36855435371398926,0.22154536843299866,-0.08317825198173523,-0.10297730565071106,-0.1470089852809906,-0.23130235075950623,-0.27372342348098755
0,ptbxl,iii,6,0.463383287191391,0.6856195330619812,0.33429867029190063,0.4958667457103729,-0.12908461689949036,-0.18975278735160828,0.1615680754184723,-0.2734059989452362,-0.237041637301445
0,ptbxl,iii,7,0.37843966484069824,0.8736857771873474,0.2034778892993927,0.6198028922080994,-0.17496177554130554,-0.25388288497924805,0.41632500290870667,-0.5278132557868958,-0.3776138722896576
0,ptbxl,iii,8,0.4687443971633911,0.8842636346817017,0.33797770738601685,0.6804513931274414,-0.13076668977737427,-0.20381224155426025,0.34247368574142456,-0.2906290292739868,-0.2546856701374054
0,ptbxl,iii,9,0.3526090979576111,0.39598792791366577,0.27191784977912903,0.3029289245605469,-0.08069124817848206,-0.0930590033531189,0.031011074781417847,-0.17960436642169952,-0.15892015397548676
0,ptbxl,iii,10,0.4411022663116455,0.44286811351776123,0.4205230474472046,0.4146895110607147,-0.020579218864440918,-0.02817860245704651,-0.005833536386489868,-0.0918043777346611,-0.10665155202150345
0,ptbxl,iii,11,0.4221879839897156,0.22707530856132507,0.29759860038757324,0.08817189186811447,-0.12458938360214233,-0.13890340924263,-0.20942670106887817,-0.3080509603023529,-0.2930903434753418
0,ptbxl,iii,12,0.3162575364112854,0.40087413787841797,0.27415984869003296,0.33488473296165466,-0.04209768772125244,-0.0659894049167633,0.060724884271621704,-0.16868874430656433,-0.18073946237564087
0,ptbxl,iii,13,0.3888717591762543,0.30212506651878357,0.40364938974380493,0.31068676710128784,0.01477763056755066,0.008561700582504272,-0.09296262264251709,-0.06866166740655899,-0.12357361614704132
0,ptbxl,iii,14,0.2914062738418579,0.4685385227203369,0.14176331460475922,0.26894497871398926,-0.1496429592370987,-0.19959354400634766,0.12718166410923004,-0.5681766271591187,-0.4713031053543091
0,ptbxl,iii,15,0.531965970993042,0.6715236902236938,0.3849341571331024,0.48377829790115356,-0.14703181385993958,-0.18774539232254028,0.09884414076805115,-0.24558402597904205,-0.21678636968135834
0,ptbxl,iii,16,0.28969806432724,0.32282906770706177,0.3608260452747345,0.4044872522354126,0.0711279809474945,0.08165818452835083,0.0436612069606781,0.12295318394899368,0.09321881085634232
0,ptbxl,iii,17,0.4979391098022461,0.1637040674686432,0.23018646240234375,-0.11979193240404129,-0.26775264739990234,-0.2834959924221039,-0.34997838735580444,-0.5242507457733154,-0.2928239107131958
0,ptbxl,iii,18,0.3571479916572571,0.406735360622406,0.3537832200527191,0.39720776677131653,-0.003364771604537964,-0.009527593851089478,0.04342454671859741,-0.05800335109233856,-0.07848335057497025
0,ptbxl,iii,19,0.3930174708366394,0.4222748279571533,0.07181008160114288,0.06365557760000229,-0.3212074041366577,-0.35861924290657043,-0.008154504001140594,-1.4043998718261719,-1.269750714302063
0,ptbxl,iii,20,0.30524224042892456,0.3703463077545166,0.30225563049316406,0.36376118659973145,-0.002986609935760498,-0.006585121154785156,0.06150555610656738,-0.03490547463297844,-0.06003088876605034
0,ptbxl,iii,21,0.2750396728515625,0.36255770921707153,0.22260312736034393,0.2919948399066925,-0.05243654549121857,-0.07056286931037903,0.06939171254634857,-0.1858130544424057,-0.17040647566318512
0,ptbxl,iii,22,0.46867191791534424,0.818638026714325,0.4804830551147461,0.8302702307701111,0.011811137199401855,0.011632204055786133,0.349787175655365,-0.001976295607164502,-0.00020708798547275364
0,ptbxl,iii,23,0.3800235688686371,0.39483198523521423,0.32639575004577637,0.32425758242607117,-0.05362781882286072,-0.07057440280914307,-0.0021381676197052,-0.14950481057167053,-0.15156584978103638
0,ptbxl,iii,24,0.42317554354667664,0.695152997970581,0.2825702726840973,0.5370530486106873,-0.14060527086257935,-0.1580999493598938,0.25448277592658997,-0.31562530994415283,-0.2397591769695282
0,ptbxl,iii,25,0.36457258462905884,0.4942816495895386,0.37113291025161743,0.4976327419281006,0.006560325622558594,0.0033510923385620117,0.12649983167648315,-0.05474792793393135,-0.058748453855514526
0,ptbxl,iii,26,0.38140249252319336,0.1540694683790207,0.23694750666618347,-0.01378281693905592,-0.1444549858570099,-0.1678522825241089,-0.25073033571243286,-0.375407338142395,-0.29700711369514465
0,ptbxl,iii,27,0.28704893589019775,0.253845751285553,0.27168306708335876,0.2358333021402359,-0.01536586880683899,-0.018012449145317078,-0.035849764943122864,-0.02616189606487751,-0.0012491395464166999
0,ptbxl,iii,28,0.38071462512016296,0.4009764790534973,0.22778132557868958,0.21891693770885468,-0.1529332995414734,-0.18205954134464264,-0.0088643878698349,-0.3676782548427582,-0.3278841972351074
0,ptbxl,iii,29,0.3206384778022766,0.5177963972091675,0.31712913513183594,0.509652316570282,-0.003509342670440674,-0.008144080638885498,0.19252318143844604,-0.03572362661361694,-0.035369858145713806
0,ptbxl,iii,30,0.3135673999786377,0.32779598236083984,0.22462812066078186,0.2266877293586731,-0.08893927931785583,-0.10110825300216675,0.0020596086978912354,-0.2746696472167969,-0.26812437176704407
0,ptbxl,iii,31,0.32952606678009033,0.3108241558074951,0.6730299592018127,0.673112690448761,0.3435038924217224,0.36228853464126587,8.273124694824219e-05,0.5342980623245239,0.5083808898925781
0,ptbxl,iii,32,0.35705482959747314,0.7970775961875916,0.20610736310482025,0.5984331965446472,-0.1509474664926529,-0.19864439964294434,0.39232581853866577,-0.48319876194000244,-0.3276281952857971
0,ptbxl,iii,33,0.36677682399749756,0.21554797887802124,0.408842533826828,0.26012086868286133,0.042065709829330444,0.04457288980484009,-0.14872166514396667,0.030953476205468178,-0.0006970808026380837
0,ptbxl,iii,34,0.3046450614929199,0.1198321208357811,0.20659171044826508,0.004324622452259064,-0.09805335104465485,-0.11550749838352203,-0.20226708054542542,-0.312772274017334,-0.24748213589191437
0,ptbxl,iii,35,0.1647973656654358,0.2617267370223999,0.13141590356826782,0.219825878739357,-0.03338146209716797,-0.04190085828304291,0.08840997517108917,-0.17487318813800812,-0.13507652282714844
0,ptbxl,iii,36,0.25564664602279663,0.16262750327587128,0.24679207801818848,0.15339887142181396,-0.008854568004608154,-0.009228631854057312,-0.09339320659637451,-0.004412716720253229,0.01945461891591549
0,ptbxl,iii,37,0.40582630038261414,0.2805235981941223,0.4816094934940338,0.3571387529373169,0.07578319311141968,0.07661515474319458,-0.12447074055671692,0.08717420697212219,0.08228261768817902
0,ptbxl,iii,38,0.3080463707447052,0.2593153715133667,0.1811760663986206,0.10246074944734573,-0.1268703043460846,-0.15685462951660156,-0.07871531695127487,-0.415174663066864,-0.38317838311195374
0,ptbxl,iii,39,0.2676137685775757,0.2890344262123108,0.09239211678504944,0.047864772379398346,-0.17522165179252625,-0.24116966128349304,-0.04452734440565109,-0.8376978039741516,-0.7040175199508667
0,ptbxl,iii,40,0.37238943576812744,0.24420082569122314,0.26217329502105713,0.11596683412790298,-0.11021614074707031,-0.12823399901390076,-0.14620646834373474,-0.26283755898475647,-0.22748078405857086
0,ptbxl,iii,41,0.33530521392822266,0.4016011357307434,0.20303699374198914,0.25106900930404663,-0.13226822018623352,-0.15053212642669678,0.048032015562057495,-0.33117082715034485,-0.28419414162635803
0,ptbxl,iii,42,0.4231811463832855,0.5280805826187134,0.3218887746334076,0.40087878704071045,-0.10129237174987793,-0.12720179557800293,0.07899001240730286,-0.22774918377399445,-0.21360991895198822
0,ptbxl,iii,43,0.2787800133228302,0.08111013472080231,0.2697744071483612,0.06709019839763641,-0.009005606174468994,-0.014019936323165894,-0.2026842087507248,-0.07698178291320801,-0.1106303334236145
0,ptbxl,iii,44,0.41167151927948,0.536437451839447,0.23142944276332855,0.3327105641365051,-0.18024207651615143,-0.2037268877029419,0.10128112137317657,-0.46764808893203735,-0.4229927957057953
0,ptbxl,iii,45,0.1958940625190735,0.0006619691848754883,0.08116667717695236,-0.12118925899267197,-0.11472738534212112,-0.12185122817754745,-0.20235593616962433,-0.6824773550033569,-0.24310502409934998
0,ptbxl,iii,46,0.17503994703292847,-0.11636712402105331,0.09835079312324524,-0.20991164445877075,-0.07668915390968323,-0.09354452043771744,-0.308262437582016,-0.444530725479126,-0.24643583595752716
0,ptbxl,iii,47,0.4376389682292938,0.630539059638977,0.36195117235183716,0.524544358253479,-0.07568779587745667,-0.10599470138549805,0.16259318590164185,-0.2160208821296692,-0.2121059149503708
0,ptbxl,iii,48,0.30404478311538696,0.38230299949645996,0.1624656766653061,0.20652033388614655,-0.14157910645008087,-0.17578266561031342,0.044054657220840454,-0.4867269992828369,-0.4386158883571625
0,ptbxl,iii,49,0.5535728335380554,0.6398069262504578,0.38077330589294434,0.41603124141693115,-0.17279952764511108,-0.2237756848335266,0.035257935523986816,-0.34101685881614685,-0.33794596791267395
0,ptbxl,iii,50,0.5156204104423523,0.7430164813995361,0.3335045874118805,0.47545644640922546,-0.1821158230304718,-0.26756003499031067,0.14195185899734497,-0.35575544834136963,-0.3164181709289551
0,ptbxl,iii,51,0.41842007637023926,0.41197702288627625,0.37225979566574097,0.34975942969322205,-0.04616028070449829,-0.0622175931930542,-0.02250036597251892,-0.12262485176324844,-0.12641727924346924
0,ptbxl,iii,52,0.3629552721977234,0.2910197079181671,0.13794398307800293,0.015023397281765938,-0.22501128911972046,-0.27599629759788513,-0.12292058765888214,-0.7267881631851196,-0.5388953685760498
0,ptbxl,iii,53,0.3393760919570923,0.558967113494873,0.054451409727334976,0.13994349539279938,-0.2849246859550476,-0.41902363300323486,0.0854920893907547,-1.474189281463623,-1.217418909072876
0,ptbxl,iii,54,0.28451448678970337,0.11082902550697327,0.6359256505966187,0.48627957701683044,0.3514111638069153,0.3754505515098572,-0.1496460735797882,0.6991435289382935,0.5511364936828613
0,ptbxl,iii,55,0.14147761464118958,-0.035390205681324005,0.03872274234890938,-0.17552489042282104,-0.1027548760175705,-0.14013469219207764,-0.21424762904644012,-0.9936016201972961,-0.4513865113258362
0,ptbxl,iii,56,0.30279093980789185,0.2039775848388672,0.17982973158359528,0.05047738924622536,-0.12296120822429657,-0.15350019931793213,-0.12935234606266022,-0.45478665828704834,-0.2582615315914154
0,ptbxl,iii,57,0.2518507242202759,0.2104700207710266,0.08665761351585388,-0.005659862421452999,-0.165193110704422,-0.21612988412380219,-0.09231747686862946,-0.822939395904541,-0.6899970173835754
0,ptbxl,iii,58,0.2734832763671875,0.004008862189948559,0.41522017121315,0.15237481892108917,0.14173689484596252,0.14836595952510834,-0.26284533739089966,0.3460695445537567,0.10748068988323212
0,ptbxl,iii,59,0.4130089282989502,0.4938066601753235,0.23544634878635406,0.2503359913825989,-0.17756257951259613,-0.2434706687927246,0.014889642596244812,-0.473373681306839,-0.4212971031665802
0,ptbxl,iii,60,0.3931771218776703,0.4195192754268646,0.1911417543888092,0.1470319926738739,-0.20203536748886108,-0.2724872827529907,-0.0441097617149353,-0.6012780666351318,-0.5269241333007812
0,ptbxl,iii,61,0.34850335121154785,0.4037506580352783,0.3891754150390625,0.4529212713241577,0.04067206382751465,0.049170613288879395,0.06374585628509521,0.07755926251411438,0.06668917834758759
0,ptbxl,iii,62,0.2854340970516205,0.24537919461727142,0.1466025859117508,0.05547700077295303,-0.1388315111398697,-0.1899021863937378,-0.09112558513879776,-0.4679446816444397,-0.3204973042011261
0,ptbxl,iii,63,0.42897409200668335,0.6359068155288696,0.573178768157959,0.8008729219436646,0.14420467615127563,0.16496610641479492,0.22769415378570557,0.2102605253458023,0.18069854378700256
0,ptbxl,v1,0,0.3003653883934021,0.41939854621887207,0.19059541821479797,0.26455962657928467,-0.10976997017860413,-0.1548389196395874,0.0739642083644867,-0.34990057349205017,-0.3013290464878082
0,ptbxl,v1,1,0.38766783475875854,0.5482325553894043,0.441283255815506,0.6164351105690002,0.053615421056747437,0.06820255517959595,0.17515185475349426,0.07736784964799881,0.05334442853927612
0,ptbxl,v1,2,0.5625797510147095,0.49025481939315796,0.42638060450553894,0.31567835807800293,-0.13619914650917053,-0.17457646131515503,-0.11070224642753601,-0.2688451409339905,-0.29074087738990784
0,ptbxl,v1,3,0.35341864824295044,0.27851027250289917,1.4521915912628174,1.4695637226104736,1.0987730026245117,1.1910533905029297,0.01737213134765625,1.2860182523727417,1.2217211723327637
0,ptbxl,v1,4,0.38541221618652344,0.48686617612838745,0.40321868658065796,0.5004215240478516,0.01780647039413452,0.013555347919464111,0.0972028374671936,-0.03614463657140732,-0.05357808247208595
0,ptbxl,v1,5,0.42109715938568115,0.45375916361808777,0.4232196807861328,0.4536592662334442,0.00212252140045166,-9.989738464355469e-05,0.0304395854473114,-0.028564194217324257,-0.03967156633734703
0,ptbxl,v1,6,0.33164334297180176,-0.00926943402737379,0.2605023980140686,-0.09208118170499802,-0.07114094495773315,-0.08281175047159195,-0.3525835871696472,-0.1830441653728485,-0.07634101808071136
0,ptbxl,v1,7,0.2589223384857178,0.3508443236351013,0.12509723007678986,0.19156590104103088,-0.13382510840892792,-0.15927842259407043,0.06646867096424103,-0.5271791815757751,-0.4614054560661316
0,ptbxl,v1,8,0.4725642204284668,0.5669956803321838,0.011529705487191677,0.070157490670681,-0.46103450655937195,-0.49683818221092224,0.05862778425216675,-2.477663040161133,-1.9276124238967896
0,ptbxl,v1,9,0.1898689568042755,0.10968443006277084,0.13905036449432373,0.04270440712571144,-0.05081859230995178,-0.0669800192117691,-0.09634596109390259,-0.2441822588443756,-0.23543274402618408
0,ptbxl,v1,10,0.4853487014770508,0.28261253237724304,0.3245014548301697,0.08610482513904572,-0.1608472466468811,-0.19650770723819733,-0.23839662969112396,-0.37193766236305237,-0.3826192021369934
0,ptbxl,v1,11,0.4272501468658447,0.5901974439620972,0.24133123457431793,0.34731215238571167,-0.1859189122915268,-0.2428852915763855,0.10598091781139374,-0.48085397481918335,-0.43938687443733215
0,ptbxl,v1,12,0.3861001431941986,0.5025200843811035,0.23990008234977722,0.3262209892272949,-0.1462000608444214,-0.1762990951538086,0.0863209068775177,-0.37874215841293335,-0.34178292751312256
0,ptbxl,v1,13,0.24586638808250427,0.4455614984035492,0.3941538631916046,0.6097699999809265,0.14828747510910034,0.16420850157737732,0.2156161367893219,0.38763535022735596,0.30629244446754456
0,ptbxl,v1,14,0.28819411993026733,0.11422649025917053,0.14183832705020905,-0.05233846232295036,-0.1463557928800583,-0.1665649563074112,-0.1941767930984497,-0.5272971391677856,-0.41641178727149963
0,ptbxl,v1,15,0.3075007200241089,0.328643262386322,0.30457374453544617,0.32179391384124756,-0.0029269754886627197,-0.006849348545074463,0.01722016930580139,-0.02384660206735134,-0.05037982761859894
0,ptbxl,v1,16,0.28980767726898193,0.3427172601222992,0.2025691121816635,0.23204736411571503,-0.08723856508731842,-0.11066989600658417,0.029478251934051514,-0.26818788051605225,-0.2271445244550705
0,ptbxl,v1,17,0.25432834029197693,0.16419854760169983,0.19639045000076294,0.0992966815829277,-0.05793789029121399,-0.06490186601877213,-0.09709376841783524,-0.21530452370643616,-0.21376550197601318
0,ptbxl,v1,18,0.2878548502922058,0.03570368140935898,0.724156379699707,0.509628415107727,0.4363015294075012,0.4739247262477875,-0.21452796459197998,0.7296801805496216,0.5332666635513306
0,ptbxl,v1,19,0.29498907923698425,0.3009693920612335,0.017497459426522255,0.009930964559316635,-0.27749162912368774,-0.2910384237766266,-0.00756649486720562,-2.44563627243042,-2.207918882369995
0,ptbxl,v1,20,0.40544354915618896,0.4284425973892212,0.3621385097503662,0.3649142384529114,-0.043305039405822754,-0.06352835893630981,0.002775728702545166,-0.15180039405822754,-0.1754567176103592
0,ptbxl,v1,21,0.4578319489955902,0.5679537653923035,0.44676437973976135,0.5592576861381531,-0.011067569255828857,-0.00869607925415039,0.11249330639839172,0.01461185421794653,0.019854266196489334
0,ptbxl,v1,22,0.38644492626190186,0.3267838656902313,0.704918622970581,0.6570151448249817,0.3184736967086792,0.33023127913475037,-0.047903478145599365,0.4256339371204376,0.4137800931930542
0,ptbxl,v1,23,0.24261991679668427,0.6514480113983154,0.2469175159931183,0.6598449945449829,0.004297599196434021,0.00839698314666748,0.4129274785518646,0.04055275768041611,0.024451933801174164
0,ptbxl,v1,24,0.38945338129997253,0.46289393305778503,0.31049683690071106,0.3615760803222656,-0.07895654439926147,-0.10131785273551941,0.051079243421554565,-0.18233582377433777,-0.17034341394901276
0,ptbxl,v1,25,0.3626110255718231,0.30912500619888306,0.2151961624622345,0.14481224119663239,-0.14741486310958862,-0.16431276500225067,-0.07038392126560211,-0.3479076623916626,-0.3185277283191681
0,ptbxl,v1,26,0.3802202343940735,0.48305320739746094,0.044961586594581604,0.04431397467851639,-0.3352586627006531,-0.43873924016952515,-0.0006476119160652161,-1.7823039293289185,-1.573050618171692
0,ptbxl,v1,27,0.44204479455947876,0.3563466966152191,0.44734179973602295,0.36128154397010803,0.0052970051765441895,0.004934847354888916,-0.08606025576591492,-0.02449832856655121,-0.04228520020842552
0,ptbxl,v1,28,0.464458167552948,0.5837228298187256,0.41240793466567993,0.5064798593521118,-0.052050232887268066,-0.07724297046661377,0.09407192468643188,-0.1314321756362915,-0.14376749098300934
0,ptbxl,v1,29,0.4249815344810486,0.6120604276657104,0.3167777359485626,0.4584103226661682,-0.10820379853248596,-0.15365010499954224,0.1416325867176056,-0.2538965940475464,-0.23533138632774353
0,ptbxl,v1,30,0.29306626319885254,0.11459212750196457,0.2982266843318939,0.12137743085622787,0.005160421133041382,0.006785303354263306,-0.17684924602508545,0.019952544942498207,-0.001635397900827229
0,ptbxl,v1,31,0.5630678534507751,0.4239625632762909,0.48569566011428833,0.32771894335746765,-0.07737219333648682,-0.09624361991882324,-0.15797671675682068,-0.13752387464046478,-0.15978364646434784
0,ptbxl,v1,32,0.4393598735332489,0.6783757209777832,0.3318336606025696,0.5423199534416199,-0.10752621293067932,-0.13605576753616333,0.2104862928390503,-0.24101994931697845,-0.2153298705816269
0,ptbxl,v1,33,0.4186592698097229,0.6706001162528992,0.4504002034664154,0.706846296787262,0.031740933656692505,0.03624618053436279,0.25644609332084656,0.052126266062259674,0.04340292513370514
0,ptbxl,v1,34,0.3509431481361389,0.32603809237480164,0.40098488330841064,0.381622314453125,0.05004173517227173,0.055584222078323364,-0.019362568855285645,0.05648903176188469,0.023811914026737213
0,ptbxl,v1,35,0.42035067081451416,0.34779733419418335,0.3047422170639038,0.2226591408252716,-0.11560845375061035,-0.12513819336891174,-0.0820830762386322,-0.24277085065841675,-0.23448045551776886
0,ptbxl,v1,36,0.44819438457489014,0.7066959738731384,0.43610090017318726,0.6784303784370422,-0.01209348440170288,-0.02826559543609619,0.24232947826385498,-0.06436508893966675,-0.0777512863278389
0,ptbxl,v1,37,0.19583433866500854,-0.12489919364452362,1.2065277099609375,0.8911226987838745,1.0106933116912842,1.0160218477249146,-0.315405011177063,1.6926274299621582,1.0888835191726685
0,ptbxl,v1,38,0.4481266140937805,0.2349768877029419,0.4525226354598999,0.237972229719162,0.004396021366119385,0.0029953420162200928,-0.21455040574073792,-0.010279017500579357,-0.024400537833571434
0,ptbxl,v1,39,0.382399320602417,0.4253997206687927,0.3060172200202942,0.3197636008262634,-0.0763821005821228,-0.1056361198425293,0.013746380805969238,-0.2129872590303421,-0.21366600692272186
0,ptbxl,v1,40,0.22845658659934998,0.3820645809173584,0.18109792470932007,0.31024494767189026,-0.04735866189002991,-0.07181963324546814,0.1291470229625702,-0.22758889198303223,-0.2001756727695465
0,ptbxl,v1,41,0.19894927740097046,0.35755857825279236,0.22625043988227844,0.3880343735218048,0.027301162481307983,0.03047579526901245,0.16178393363952637,0.11348524689674377,0.07670672982931137
0,ptbxl,v1,42,0.38510817289352417,0.4629232883453369,0.2708792984485626,0.3338295519351959,-0.11422887444496155,-0.129093736410141,0.0629502534866333,-0.23484215140342712,-0.21217121183872223
0,ptbxl,v1,43,0.3631781339645386,0.353701651096344,0.24608489871025085,0.21322642266750336,-0.11709323525428772,-0.14047522842884064,-0.0328584760427475,-0.3278365731239319,-0.32498955726623535
0,ptbxl,v1,44,0.22834599018096924,0.1963658183813095,0.20700722932815552,0.16570493578910828,-0.02133876085281372,-0.030660882592201233,-0.04130229353904724,-0.10116319358348846,-0.11376671493053436
0,ptbxl,v1,45,0.3725937008857727,0.33381232619285583,0.28382888436317444,0.2250596135854721,-0.08876481652259827,-0.10875271260738373,-0.05876927077770233,-0.24563796818256378,-0.24773739278316498
0,ptbxl,v1,46,0.45909321308135986,0.6597968935966492,0.17293530702590942,0.31866973638534546,-0.28615790605545044,-0.3411271572113037,0.14573442935943604,-0.7503758668899536,-0.6370605230331421
0,ptbxl,v1,47,0.22129295766353607,0.009980935603380203,0.02504453808069229,-0.18444064259529114,-0.19624841213226318,-0.19442157447338104,-0.20948517322540283,-1.4996674060821533,-0.44248247146606445
0,ptbxl,v1,48,0.29298511147499084,0.23896634578704834,0.10321676731109619,-0.02332061156630516,-0.18976834416389465,-0.2622869610786438,-0.12653738260269165,-0.8737238645553589,-0.7629401683807373
0,ptbxl,v1,49,0.378216028213501,0.7076747417449951,0.3425850570201874,0.6498522758483887,-0.0356309711933136,-0.057822465896606445,0.3072672188282013,-0.11229822784662247,-0.10920745879411697
0,ptbxl,v1,50,0.39545735716819763,0.3358404338359833,0.34101414680480957,0.27210456132888794,-0.05444321036338806,-0.06373587250709534,-0.06890958547592163,-0.09817887097597122,-0.08704081177711487
0,ptbxl,v1,51,0.4762352705001831,0.6224762201309204,0.63048255443573,0.8072664141654968,0.15424728393554688,0.18479019403457642,0.17678385972976685,0.20803102850914001,0.19022613763809204
0,ptbxl,v1,52,0.4063127040863037,0.48494836688041687,0.22950954735279083,0.2502666413784027,-0.17680315673351288,-0.23468172550201416,0.020757094025611877,-0.40494540333747864,-0.3370040953159332
0,ptbxl,v1,53,0.33887192606925964,0.17293938994407654,0.09421229362487793,-0.10898443311452866,-0.2446596324443817,-0.2819238305091858,-0.20319673418998718,-0.9656447172164917,-0.4986807107925415
0,ptbxl,v1,54,0.5403527021408081,0.674773097038269,0.46164247393608093,0.591675341129303,-0.07871022820472717,-0.08309775590896606,0.13003286719322205,-0.05509791523218155,-0.04383385181427002
0,ptbxl,v1,55,0.3419688642024994,0.2863738238811493,0.26524829864501953,0.19605614244937897,-0.07672056555747986,-0.09031768143177032,-0.06919215619564056,-0.22020584344863892,-0.23097090423107147
0,ptbxl,v1,56,0.2930261492729187,0.3228340744972229,0.19811096787452698,0.22099603712558746,-0.09491518139839172,-0.10183803737163544,0.022885069251060486,-0.17795278131961823,-0.14593161642551422
0,ptbxl,v1,57,0.5212661623954773,0.24053393304347992,0.40781286358833313,0.11003465205430984,-0.11345329880714417,-0.13049927353858948,-0.2977782189846039,-0.21651731431484222,-0.20202328264713287
0,ptbxl,v1,58,0.394892156124115,0.5952671766281128,0.5334939956665039,0.7726194858551025,0.13860183954238892,0.17735230922698975,0.23912549018859863,0.2878035306930542,0.2665460705757141
0,ptbxl,v1,59,0.3977890908718109,0.38252103328704834,0.5424463748931885,0.5277073383331299,0.14465728402137756,0.14518630504608154,-0.014739036560058594,0.22906623780727386,0.22926898300647736
0,ptbxl,v1,60,0.40440472960472107,0.276314914226532,0.4009099304676056,0.2805282771587372,-0.0034947991371154785,0.0042133629322052,-0.12038165330886841,0.07944967597723007,0.046502888202667236
0,ptbxl,v1,61,0.2432662844657898,-0.06606285274028778,0.28830087184906006,-0.01237068884074688,0.045034587383270264,0.05369216203689575,-0.3006715476512909,0.10918237268924713,0.05180531367659569
0,ptbxl,v1,62,0.4611416757106781,0.7908851504325867,0.1494719535112381,0.4567631781101227,-0.3116697072982788,-0.334121972322464,0.3072912096977234,-0.8958061337471008,-0.5562015175819397
0,ptbxl,v1,63,0.2688964009284973,0.47412654757499695,0.2603154182434082,0.46347859501838684,-0.008580982685089111,-0.010647952556610107,0.20316317677497864,-0.02977125719189644,-0.025924652814865112
0,ptbxl,v2,0,0.17747174203395844,0.005437205545604229,0.09655239433050156,-0.08318201452493668,-0.08091934770345688,-0.08861921727657318,-0.17973440885543823,-0.34125134348869324,-0.2027178555727005
0,ptbxl,v2,1,0.3460303544998169,0.4675157964229584,0.2438947707414627,0.3536302149295807,-0.10213558375835419,-0.11388558149337769,0.10973544418811798,-0.28492191433906555,-0.2517404556274414
0,ptbxl,v2,2,0.32360363006591797,0.4061451852321625,0.14776745438575745,0.19312246143817902,-0.17583617568016052,-0.21302272379398346,0.04535500705242157,-0.5918217897415161,-0.5209407210350037
0,ptbxl,v2,3,0.4747459888458252,0.7382563948631287,0.6186789870262146,0.9080782532691956,0.1439329981803894,0.1698218584060669,0.28939926624298096,0.25707492232322693,0.2207460105419159
0,ptbxl,v2,4,0.34596407413482666,0.2700931429862976,0.3906010091304779,0.3247428834438324,0.044636934995651245,0.05464974045753479,-0.06585812568664551,0.09807765483856201,0.08921371400356293
0,ptbxl,v2,5,0.44790124893188477,0.5738162994384766,0.48168331384658813,0.6143972873687744,0.03378206491470337,0.04058098793029785,0.13271397352218628,0.06081904098391533,0.05719854310154915
0,ptbxl,v2,6,0.3326405882835388,0.5677580833435059,0.09248560667037964,0.29129475355148315,-0.24015498161315918,-0.2764633297920227,0.19880914688110352,-0.9527820348739624,-0.6499143242835999
0,ptbxl,v2,7,0.3961368501186371,0.2829890251159668,0.36067572236061096,0.24257533252239227,-0.03546112775802612,-0.040413692593574524,-0.11810038983821869,-0.05733920633792877,-0.04515508562326431
0,ptbxl,v2,8,0.31527823209762573,0.38754481077194214,0.2899157404899597,0.34909194707870483,-0.025362491607666016,-0.038452863693237305,0.05917620658874512,-0.08859781175851822,-0.09976319968700409
0,ptbxl,v2,9,0.42752957344055176,0.6217509508132935,0.38036155700683594,0.5560464262962341,-0.04716801643371582,-0.06570452451705933,0.1756848692893982,-0.12066875398159027,-0.11955854296684265
0,ptbxl,v2,10,0.4702591598033905,0.7567612528800964,0.5632907748222351,0.8669226169586182,0.0930316150188446,0.11016136407852173,0.30363184213638306,0.11591122299432755,0.09374918788671494
0,ptbxl,v2,11,0.2908259630203247,0.3953545093536377,0.022048119455575943,0.02782382443547249,-0.26877784729003906,-0.3675306737422943,0.005775704979896545,-2.0370590686798096,-1.7403326034545898
0,ptbxl,v2,12,0.32678911089897156,0.35405397415161133,0.5678603649139404,0.6552442312240601,0.24107125401496887,0.30119025707244873,0.08738386631011963,0.44572678208351135,0.4111061990261078
0,ptbxl,v2,13,0.3438553810119629,0.39256370067596436,0.3112943768501282,0.3519863784313202,-0.03256100416183472,-0.040577322244644165,0.04069200158119202,-0.1047835424542427,-0.10523631423711777
0,ptbxl,v2,14,0.453576922416687,0.5182243585586548,0.24118036031723022,0.2297993004322052,-0.2123965620994568,-0.2884250581264496,-0.011381059885025024,-0.4497884213924408,-0.362170547246933
0,ptbxl,v2,15,0.24708256125450134,0.32047295570373535,0.04528051242232323,0.029649430885910988,-0.20180204510688782,-0.2908235192298889,-0.01563108153641224,-1.3910151720046997,-1.1870142221450806
0,ptbxl,v2,16,0.31996139883995056,0.49535343050956726,0.18543554842472076,0.31546688079833984,-0.1345258504152298,-0.17988654971122742,0.13003133237361908,-0.4304099977016449,-0.3644631803035736
0,ptbxl,v2,17,0.30747029185295105,0.20664069056510925,0.4283885359764099,0.3792346119880676,0.12091824412345886,0.17259392142295837,-0.049153923988342285,0.2826055884361267,0.20877189934253693
0,ptbxl,v2,18,0.2941179871559143,0.6047405004501343,0.43025800585746765,0.8130641579627991,0.13614001870155334,0.2083236575126648,0.3828061521053314,0.33332833647727966,0.28761354088783264
0,ptbxl,v2,19,0.47943347692489624,0.541378378868103,0.31970515847206116,0.36445432901382446,-0.15972831845283508,-0.17692404985427856,0.044749170541763306,-0.3093654215335846,-0.29776617884635925
0,ptbxl,v2,20,0.24452106654644012,0.2102849930524826,0.25421732664108276,0.2191842645406723,0.00969626009464264,0.008899271488189697,-0.03503306210041046,-0.013421677984297276,-0.04009094834327698
0,ptbxl,v2,21,0.5449042320251465,0.6978055238723755,1.0262519121170044,1.171661138534546,0.4813476800918579,0.4738556146621704,0.1454092264175415,0.514763355255127,0.4769195318222046
0,ptbxl,v2,22,0.2957412600517273,0.1452941596508026,0.15334586799144745,-0.018734948709607124,-0.14239539206027985,-0.1640291064977646,-0.17208081483840942,-0.4995591640472412,-0.3474476933479309
0,ptbxl,v2,23,0.5432617664337158,0.697926938533783,0.4978572428226471,0.6387196779251099,-0.045404523611068726,-0.059207260608673096,0.14086243510246277,-0.08778725564479828,-0.08830349147319794
0,ptbxl,v2,24,0.2525309920310974,0.2892988324165344,0.18222367763519287,0.19496014714241028,-0.07030731439590454,-0.09433868527412415,0.012736469507217407,-0.24940159916877747,-0.20258083939552307
0,ptbxl,v2,25,0.5373325347900391,0.6133285760879517,0.49420997500419617,0.5593222975730896,-0.043122559785842896,-0.05400627851486206,0.06511232256889343,-0.0963253527879715,-0.10313896834850311
0,ptbxl,v2,26,0.28336501121520996,0.4490768313407898,0.13927949965000153,0.26719462871551514,-0.14408551156520844,-0.18188220262527466,0.1279151290655136,-0.5573291182518005,-0.44793152809143066
0,ptbxl,v2,27,0.14440663158893585,-0.15619897842407227,0.149518221616745,-0.15025432407855988,0.005111590027809143,0.00594465434551239,-0.29977256059646606,0.03582501411437988,0.007698509376496077
0,ptbxl,v2,28,0.4277329444885254,0.5458718538284302,0.3831188678741455,0.4847976267337799,-0.04461407661437988,-0.06107422709465027,0.1016787588596344,-0.10897094756364822,-0.11348437517881393
0,ptbxl,v2,29,0.30967453122138977,0.5051047801971436,0.28023606538772583,0.46513915061950684,-0.02943846583366394,-0.03996562957763672,0.184903085231781,-0.08765652775764465,-0.07850591093301773
0,ptbxl,v2,30,0.3946774899959564,0.3533782362937927,0.5794039368629456,0.5721277594566345,0.18472644686698914,0.2187495231628418,-0.007276177406311035,0.3146192133426666,0.2938162088394165
0,ptbxl,v2,31,0.4741557836532593,0.46574315428733826,0.672338604927063,0.7015472650527954,0.1981828212738037,0.23580411076545715,0.029208660125732422,0.3061771094799042,0.3022822141647339
0,ptbxl,v2,32,0.3687898516654968,0.3929753303527832,0.33873987197875977,0.3600209653377533,-0.03004997968673706,-0.03295436501502991,0.02128109335899353,-0.03639062121510506,-0.030559590086340904
0,ptbxl,v2,33,0.41343092918395996,0.6612379550933838,0.3700156807899475,0.6109745502471924,-0.04341524839401245,-0.050263404846191406,0.24095886945724487,-0.05933750793337822,-0.04857464134693146
0,ptbxl,v2,34,0.31417280435562134,0.5376260280609131,0.08062492311000824,0.22877557575702667,-0.2335478812456131,-0.3088504672050476,0.14815065264701843,-1.0743030309677124,-0.8232620358467102
0,ptbxl,v2,35,0.3659558892250061,0.05692564696073532,1.0468753576278687,0.8061608672142029,0.6809194684028625,0.749235212802887,-0.24071449041366577,0.9374849796295166,0.7637587785720825
0,ptbxl,v2,36,0.341774046421051,0.6387551426887512,0.5601947903633118,0.9126359224319458,0.21842074394226074,0.2738807797431946,0.35244113206863403,0.41606247425079346,0.33930590748786926
0,ptbxl,v2,37,0.2229895293712616,0.10652270913124084,0.0378866083920002,-0.11901959776878357,-0.1851029247045517,-0.22554230690002441,-0.15690620243549347,-1.3563002347946167,-0.690885603427887
0,ptbxl,v2,38,0.5836964845657349,0.6550037860870361,0.6323879361152649,0.7191193699836731,0.04869145154953003,0.06411558389663696,0.0867314338684082,0.09776896238327026,0.10390006005764008
0,ptbxl,v2,39,0.35497912764549255,0.39040607213974,0.49883297085762024,0.5471899509429932,0.14385384321212769,0.15678387880325317,0.048356980085372925,0.2738543152809143,0.2634258270263672
0,ptbxl,v2,40,0.23364055156707764,0.21771429479122162,0.11004772782325745,0.05780550837516785,-0.12359282374382019,-0.15990878641605377,-0.0522422194480896,-0.49675559997558594,-0.36695975065231323
0,ptbxl,v2,41,0.32713890075683594,0.4110925793647766,0.2689121663570404,0.3458636999130249,-0.05822673439979553,-0.06522887945175171,0.0769515335559845,-0.18716606497764587,-0.17446966469287872
0,ptbxl,v2,42,0.35855981707572937,0.24811717867851257,0.3973501920700073,0.3009195625782013,0.038790374994277954,0.05280238389968872,-0.09643062949180603,0.07525581866502762,0.03748949617147446
0,ptbxl,v2,43,0.3627070188522339,0.4639744758605957,0.3381081223487854,0.43456217646598816,-0.024598896503448486,-0.029412299394607544,0.09645405411720276,-0.06169762462377548,-0.0652286484837532
0,ptbxl,v2,44,0.3844209909439087,0.6232215166091919,0.18759611248970032,0.390980064868927,-0.19682487845420837,-0.2322414517402649,0.20338395237922668,-0.5621358752250671,-0.44973403215408325
0,ptbxl,v2,45,0.3771950900554657,0.4256332814693451,1.1344187259674072,1.2134687900543213,0.7572236061096191,0.7878354787826538,0.07905006408691406,0.9955132603645325,0.964714765548706
0,ptbxl,v2,46,0.4026027321815491,0.4745735824108124,0.4412122964859009,0.5188438892364502,0.03860956430435181,0.04427030682563782,0.07763159275054932,0.08163242042064667,0.07854773104190826
0,ptbxl,v2,47,0.4855015277862549,0.3357032537460327,0.2387388050556183,0.06521464884281158,-0.2467627227306366,-0.2704886198043823,-0.1735241562128067,-0.49477851390838623,-0.4438026547431946
0,ptbxl,v2,48,0.3683287501335144,0.38801050186157227,0.18691891431808472,0.1499100774526596,-0.1814098358154297,-0.23810042440891266,-0.03700883686542511,-0.5138267278671265,-0.42388930916786194
0,ptbxl,v2,49,0.24242661893367767,-0.1001424640417099,0.08646902441978455,-0.2643997371196747,-0.15595759451389313,-0.16425727307796478,-0.35086876153945923,-0.6203209161758423,-0.23303164541721344
0,ptbxl,v2,50,0.36530980467796326,0.5796741247177124,0.48909077048301697,0.7285449504852295,0.12378096580505371,0.1488708257675171,0.23945418000221252,0.24356472492218018,0.20743869245052338
0,ptbxl,v2,51,0.31740885972976685,0.18330858647823334,0.2511225938796997,0.10891163349151611,-0.06628626585006714,-0.07439695298671722,-0.1422109603881836,-0.21286578476428986,-0.22159019112586975
0,ptbxl,v2,52,0.37421461939811707,0.6235914826393127,0.10122263431549072,0.3029022216796875,-0.27299198508262634,-0.32068926095962524,0.20167958736419678,-0.9474105834960938,-0.6975661516189575
0,ptbxl,v2,53,0.6649879813194275,0.934024453163147,0.6436787843704224,0.9060449600219727,-0.021309196949005127,-0.027979493141174316,0.2623661756515503,-0.024778123944997787,-0.02253698743879795
0,ptbxl,v2,54,0.4593954086303711,0.6827990412712097,0.43015244603157043,0.6489476561546326,-0.02924296259880066,-0.03385138511657715,0.21879521012306213,-0.05960274487733841,-0.05412980169057846
0,ptbxl,v2,55,0.3750034272670746,0.333702027797699,0.2025769203901291,0.12047639489173889,-0.1724265068769455,-0.21322563290596008,-0.0821005254983902,-0.4027860164642334,-0.31732413172721863
0,ptbxl,v2,56,0.35811328887939453,0.45762699842453003,0.2794530391693115,0.36764150857925415,-0.07866024971008301,-0.08998548984527588,0.08818846940994263,-0.13018158078193665,-0.09418313205242157
0,ptbxl,v2,57,0.366421639919281,0.3795040547847748,0.26478198170661926,0.25171229243278503,-0.10163965821266174,-0.12779176235198975,-0.013069689273834229,-0.2632888853549957,-0.23641131818294525
0,ptbxl,v2,58,0.16207614541053772,0.25712764263153076,0.10353923588991165,0.16639716923236847,-0.05853690952062607,-0.09073047339916229,0.06285793334245682,-0.37487587332725525,-0.330365926027298
0,ptbxl,v2,59,0.39525318145751953,0.3961049020290375,0.3055579662322998,0.2927974760532379,-0.08969521522521973,-0.10330742597579956,-0.01276049017906189,-0.21061381697654724,-0.2079135626554489
0,ptbxl,v2,60,0.4608292579650879,0.5393184423446655,0.34653642773628235,0.385333389043808,-0.11429283022880554,-0.15398505330085754,0.038796961307525635,-0.23164372146129608,-0.21025489270687103
0,ptbxl,v2,61,0.27387791872024536,0.23049013316631317,0.08686024695634842,0.008933360688388348,-0.18701767921447754,-0.22155676782131195,-0.0779268890619278,-0.9772216081619263,-0.7433172464370728
0,ptbxl,v2,62,0.5304350256919861,0.6061007380485535,0.5856010317802429,0.6691859364509583,0.055166006088256836,0.06308519840240479,0.08358490467071533,0.09670094400644302,0.0930943638086319
0,ptbxl,v2,63,0.2872161567211151,0.543315589427948,0.10563091188669205,0.28661879897117615,-0.18158525228500366,-0.25669679045677185,0.1809878945350647,-0.8267325162887573,-0.6458643078804016
0,ptbxl,v3,0,0.31982702016830444,0.5414937734603882,0.19001561403274536,0.3970687687397003,-0.12981140613555908,-0.14442500472068787,0.20705315470695496,-0.3930544853210449,-0.3022814393043518
0,ptbxl,v3,1,0.420528769493103,0.19936911761760712,0.6657646894454956,0.4554060399532318,0.24523591995239258,0.2560369372367859,-0.2103586494922638,0.4037771224975586,0.38286417722702026
0,ptbxl,v3,2,0.4836326241493225,0.6206686496734619,0.6259756684303284,0.7802601456642151,0.14234304428100586,0.15959149599075317,0.15428447723388672,0.201642245054245,0.18590447306632996
0,ptbxl,v3,3,0.2745804488658905,0.07017341256141663,0.028145454823970795,-0.17808090150356293,-0.2464349865913391,-0.24825431406497955,-0.20622634887695312,-1.9180256128311157,-0.6118495464324951
0,ptbxl,v3,4,0.27921319007873535,0.2236747443675995,0.06983182579278946,-0.06678257137537003,-0.2093813717365265,-0.2904573082923889,-0.13661439716815948,-1.0791985988616943,-0.7503113746643066
0,ptbxl,v3,5,0.3994929790496826,0.45075029134750366,0.22383643686771393,0.23639993369579315,-0.1756565421819687,-0.2143503576517105,0.012563496828079224,-0.41474372148513794,-0.3797604739665985
0,ptbxl,v3,6,0.13704586029052734,-0.08659318089485168,0.1679031401872635,-0.050804074853658676,0.030857279896736145,0.03578910604119301,-0.21870721876621246,0.17525631189346313,0.08718480169773102
0,ptbxl,v3,7,0.34561893343925476,0.3538237512111664,0.30498576164245605,0.30542823672294617,-0.040633171796798706,-0.048395514488220215,0.0004424750804901123,-0.11683222651481628,-0.11497741937637329
0,ptbxl,v3,8,0.26708388328552246,0.3148195445537567,0.23524242639541626,0.2701101303100586,-0.0318414568901062,-0.04470941424369812,0.034867703914642334,-0.09926525503396988,-0.07788710296154022
0,ptbxl,v3,9,0.46081435680389404,0.5148249864578247,0.3464246690273285,0.37853503227233887,-0.11438968777656555,-0.13628995418548584,0.032110363245010376,-0.22723352909088135,-0.2154678851366043
0,ptbxl,v3,10,0.6188891530036926,0.7430449724197388,0.45716050267219543,0.5563405156135559,-0.1617286503314972,-0.18670445680618286,0.09918001294136047,-0.23955793678760529,-0.22090157866477966
0,ptbxl,v3,11,0.35011178255081177,0.2754058241844177,0.9326894283294678,0.9440611600875854,0.582577645778656,0.6686553359031677,0.011371731758117676,0.9383394122123718,0.8621305823326111
0,ptbxl,v3,12,0.3804944157600403,0.20053631067276,0.24088139832019806,0.056393735110759735,-0.13961301743984222,-0.14414256811141968,-0.18448767066001892,-0.3046218752861023,-0.2962597906589508
0,ptbxl,v3,13,0.4799054265022278,0.651906430721283,0.3739302456378937,0.5020086169242859,-0.1059751808643341,-0.14989781379699707,0.1280783712863922,-0.22275841236114502,-0.20993323624134064
0,ptbxl,v3,14,0.13841068744659424,-0.062234051525592804,0.0524681955575943,-0.18149223923683167,-0.08594249188899994,-0.11925818771123886,-0.23396043479442596,-0.7521902918815613,-0.4118015468120575
0,ptbxl,v3,15,0.33765721321105957,0.4402073323726654,0.33610621094703674,0.4370657205581665,-0.0015510022640228271,-0.0031416118144989014,0.10095950961112976,-0.017953865230083466,-0.01573006995022297
0,ptbxl,v3,16,0.29976212978363037,0.2983100116252899,0.1853436380624771,0.15802724659442902,-0.11441849172115326,-0.1402827650308609,-0.027316391468048096,-0.39817947149276733,-0.3694131076335907
0,ptbxl,v3,17,0.25109970569610596,0.3918174207210541,0.17024238407611847,0.26383689045906067,-0.08085732161998749,-0.1279805302619934,0.0935945063829422,-0.32383450865745544,-0.28428006172180176
0,ptbxl,v3,18,0.3292187452316284,0.305627703666687,0.1739218682050705,0.11175388842821121,-0.15529687702655792,-0.1938738226890564,-0.06216797977685928,-0.5087605118751526,-0.4232204854488373
0,ptbxl,v3,19,0.2862686514854431,0.21009129285812378,0.1876881718635559,0.0933946818113327,-0.09858047962188721,-0.11669661104679108,-0.0942934900522232,-0.3142338991165161,-0.2566794157028198
0,ptbxl,v3,20,0.27591538429260254,0.3106497526168823,0.19888213276863098,0.1995755285024643,-0.07703325152397156,-0.11107422411441803,0.000693395733833313,-0.20872120559215546,-0.1495758295059204
0,ptbxl,v3,21,0.5631334185600281,0.3293798565864563,0.45975369215011597,0.2110854685306549,-0.10337972640991211,-0.11829438805580139,-0.24866822361946106,-0.16859124600887299,-0.18332472443580627
0,ptbxl,v3,22,0.38605818152427673,0.29160934686660767,0.2844173014163971,0.17506229877471924,-0.10164088010787964,-0.11654704809188843,-0.10935500264167786,-0.25037363171577454,-0.24016276001930237
0,ptbxl,v3,23,0.4161892533302307,0.7079126834869385,0.4692065119743347,0.767824649810791,0.053017258644104004,0.05991196632385254,0.2986181378364563,0.04051898419857025,0.024774229153990746
0,ptbxl,v3,24,0.37076592445373535,0.040951792150735855,0.3036300539970398,-0.028632909059524536,-0.06713587045669556,-0.06958469748497009,-0.33226296305656433,-0.1714184582233429,-0.1679629683494568
0,ptbxl,v3,25,0.3756049573421478,0.26830920577049255,0.32972416281700134,0.2202698290348053,-0.045880794525146484,-0.048039376735687256,-0.10945433378219604,-0.16887205839157104,-0.18748435378074646
0,ptbxl,v3,26,0.3251751661300659,0.4857848584651947,0.17563819885253906,0.29625144600868225,-0.14953696727752686,-0.18953341245651245,0.12061324715614319,-0.4771084189414978,-0.4075413942337036
0,ptbxl,v3,27,0.3230880796909332,0.41929376125335693,0.4936368465423584,0.6601738333702087,0.17054876685142517,0.2408800721168518,0.16653698682785034,0.3531847596168518,0.31166669726371765
0,ptbxl,v3,28,0.4073732793331146,0.4290196895599365,0.4299834072589874,0.4576820433139801,0.022610127925872803,0.02866235375404358,0.027698636054992676,0.05364647135138512,0.05426621809601784
0,ptbxl,v3,29,0.5281705856323242,0.4491121768951416,0.4281861186027527,0.34344354271888733,-0.09998446702957153,-0.10566863417625427,-0.08474257588386536,-0.18247266113758087,-0.192874014377594
0,ptbxl,v3,30,0.5482064485549927,0.7103455066680908,0.4164849817752838,0.5750245451927185,-0.13172146677970886,-0.13532096147537231,0.1585395634174347,-0.1982090175151825,-0.17466652393341064
0,ptbxl,v3,31,0.2916494607925415,0.36988183856010437,0.2742305099964142,0.34840187430381775,-0.01741895079612732,-0.02147996425628662,0.07417136430740356,-0.062335673719644547,-0.05767595395445824
0,ptbxl,v3,32,0.36452794075012207,0.3083331286907196,1.1270922422409058,1.0823947191238403,0.7625643014907837,0.7740615606307983,-0.04469752311706543,0.9522659778594971,0.9702892303466797
0,ptbxl,v3,33,0.5449507236480713,0.4898936152458191,0.36620330810546875,0.29961034655570984,-0.17874741554260254,-0.19028326869010925,-0.06659296154975891,-0.34718966484069824,-0.35738953948020935
0,ptbxl,v3,34,0.24165081977844238,0.02151041477918625,0.6165838241577148,0.4604085087776184,0.37493300437927246,0.43889808654785156,-0.15617531538009644,0.8221892714500427,0.5879491567611694
0,ptbxl,v3,35,0.334995836019516,0.30803361535072327,0.12363952398300171,0.07945229113101959,-0.21135631203651428,-0.22858132421970367,-0.04418723285198212,-0.7624719738960266,-0.6866374015808105
0,ptbxl,v3,36,0.40454280376434326,0.3933955132961273,0.17395521700382233,0.10226543247699738,-0.23058758676052094,-0.29113006591796875,-0.07168978452682495,-0.6024360060691833,-0.47210612893104553
0,ptbxl,v3,37,0.3658340871334076,0.15772785246372223,0.36787229776382446,0.16153496503829956,0.00203821063041687,0.0038071125745773315,-0.2063373327255249,0.017864985391497612,0.0023377013858407736
0,ptbxl,v3,38,0.36544716358184814,0.4797220230102539,0.511481523513794,0.6461833715438843,0.1460343599319458,0.16646134853363037,0.13470184803009033,0.2364993393421173,0.21002496778964996
0,ptbxl,v3,39,0.5225635170936584,0.8629762530326843,0.580864429473877,0.9366137385368347,0.058300912380218506,0.07363748550415039,0.35574930906295776,0.09150615334510803,0.0776861160993576
0,ptbxl,v3,40,0.24897895753383636,0.17831109464168549,0.28364700078964233,0.22076253592967987,0.03466804325580597,0.042451441287994385,-0.06288446485996246,0.13732677698135376,0.07740779966115952
0,ptbxl,v3,41,0.3495405316352844,0.5994342565536499,0.25705304741859436,0.46985915303230286,-0.09248748421669006,-0.12957510352134705,0.2128061056137085,-0.2873266637325287,-0.2471180409193039
0,ptbxl,v3,42,0.35859549045562744,0.5218558311462402,0.4680442810058594,0.6564128398895264,0.10944879055023193,0.13455700874328613,0.188368558883667,0.1990259736776352,0.17001309990882874
0,ptbxl,v3,43,0.4711225926876068,0.8995527625083923,0.33558711409568787,0.7038339376449585,-0.13553547859191895,-0.19571882486343384,0.36824682354927063,-0.30827078223228455,-0.2628404498100281
0,ptbxl,v3,44,0.4987632632255554,0.69670569896698,0.4514927566051483,0.627422034740448,-0.047270506620407104,-0.06928366422653198,0.17592927813529968,-0.092910535633564,-0.09058073163032532
0,ptbxl,v3,45,0.32076501846313477,0.33036893606185913,0.5867262482643127,0.6188452839851379,0.265961229801178,0.2884763479232788,0.032119035720825195,0.5627656579017639,0.5438529849052429
0,ptbxl,v3,46,0.2368616908788681,0.07320927083492279,0.14969880878925323,-0.031552646309137344,-0.08716288208961487,-0.10476191341876984,-0.18125145137310028,-0.37240052223205566,-0.25483134388923645
0,ptbxl,v3,47,0.2920702397823334,0.44612881541252136,0.16852249205112457,0.3082544505596161,-0.1235477477312088,-0.13787436485290527,0.13973195850849152,-0.378606379032135,-0.30852243304252625
0,ptbxl,v3,48,0.3401254415512085,0.6361265182495117,0.18195980787277222,0.45385506749153137,-0.15816563367843628,-0.18227145075798035,0.27189525961875916,-0.4944734573364258,-0.34841620922088623
0,ptbxl,v3,49,0.36993932723999023,0.5053511261940002,0.18396136164665222,0.25969165563583374,-0.185977965593338,-0.2456594705581665,0.07573029398918152,-0.5571163296699524,-0.49056476354599
0,ptbxl,v3,50,0.5199149250984192,0.7066047191619873,0.5454423427581787,0.7449347972869873,0.02552741765975952,0.038330078125,0.1994924545288086,0.0500652976334095,0.05344308540225029
0,ptbxl,v3,51,0.37966442108154297,0.8225603103637695,0.27521565556526184,0.6929831504821777,-0.10444876551628113,-0.1295771598815918,0.4177674949169159,-0.217829167842865,-0.15326422452926636
0,ptbxl,v3,52,0.31414327025413513,0.5142589807510376,0.23598946630954742,0.4144463837146759,-0.07815380394458771,-0.0998125970363617,0.17845691740512848,-0.2428780496120453,-0.20865263044834137
0,ptbxl,v3,53,0.4355125427246094,0.3073379695415497,0.02425062097609043,-0.14279194176197052,-0.4112619161605835,-0.4501299262046814,-0.1670425683259964,-2.0790467262268066,-1.1047507524490356
0,ptbxl,v3,54,0.3692334294319153,0.4460483491420746,0.7586138844490051,0.9092587828636169,0.38938045501708984,0.46321043372154236,0.15064489841461182,0.5361024141311646,0.48435303568840027
0,ptbxl,v3,55,0.3586260676383972,0.4514962136745453,0.6728349924087524,0.7869396209716797,0.3142089247703552,0.3354434072971344,0.11410462856292725,0.46615734696388245,0.42966508865356445
0,ptbxl,v3,56,0.3628670573234558,0.14683808386325836,0.4041486978530884,0.18878068029880524,0.04128164052963257,0.041942596435546875,-0.21536801755428314,0.011153846979141235,-0.06613414734601974
0,ptbxl,v3,57,0.24849539995193481,0.2721208930015564,0.2561752498149872,0.2806149125099182,0.007679849863052368,0.008494019508361816,0.02443966269493103,0.011781280860304832,0.003558139316737652
0,ptbxl,v3,58,0.3521028161048889,0.4686118960380554,0.08315007388591766,0.070391446352005,-0.26895272731781006,-0.3982204496860504,-0.012758627533912659,-1.204174280166626,-1.032320261001587
0,ptbxl,v3,59,0.40105125308036804,0.49433434009552,0.27171528339385986,0.34683680534362793,-0.12933596968650818,-0.1474975347518921,0.07512152194976807,-0.2986113131046295,-0.27990251779556274
0,ptbxl,v3,60,0.42912477254867554,0.357355535030365,0.45557352900505066,0.38917651772499084,0.026448756456375122,0.031820982694625854,-0.06639701128005981,0.05551864579319954,0.04364682734012604
0,ptbxl,v3,61,0.46820876002311707,0.4827117919921875,0.39525532722473145,0.38843441009521484,-0.07295343279838562,-0.09427738189697266,-0.0068209171295166016,-0.11499227583408356,-0.09518826752901077
0,ptbxl,v3,62,0.4230459928512573,0.5637321472167969,0.2270769327878952,0.3198392391204834,-0.19596906006336212,-0.24389290809631348,0.0927623063325882,-0.5045790672302246,-0.45337432622909546
0,ptbxl,v3,63,0.38749271631240845,0.17712680995464325,0.16030043363571167,-0.0814179927110672,-0.22719228267669678,-0.25854480266571045,-0.24171842634677887,-0.5329506397247314,-0.2798338532447815
0,ptbxl,v4,0,0.37554430961608887,0.2035333216190338,0.7504087686538696,0.600053071975708,0.37486445903778076,0.3965197503566742,-0.15035569667816162,0.5380257368087769,0.4127922058105469
0,ptbxl,v4,1,0.21731308102607727,0.18203425407409668,0.11159300804138184,0.033043812960386276,-0.10572007298469543,-0.1489904373884201,-0.07854919135570526,-0.5354301929473877,-0.43861451745033264
0,ptbxl,v4,2,0.38854941725730896,0.595209002494812,0.3796752691268921,0.5814844965934753,-0.00887414813041687,-0.01372450590133667,0.20180922746658325,-0.02691211923956871,-0.03466152027249336
0,ptbxl,v4,3,0.35941100120544434,0.3962855339050293,0.21558281779289246,0.21424603462219238,-0.14382818341255188,-0.18203949928283691,-0.0013367831707000732,-0.4270004630088806,-0.38993266224861145
0,ptbxl,v4,4,0.4436831474304199,0.532088577747345,0.36060893535614014,0.4325825273990631,-0.08307421207427979,-0.09950605034828186,0.07197359204292297,-0.13025972247123718,-0.11014118045568466
0,ptbxl,v4,5,0.4665049910545349,0.7701226472854614,0.5625771284103394,0.9002907872200012,0.09607213735580444,0.1301681399345398,0.33771365880966187,0.19369931519031525,0.16806243360042572
0,ptbxl,v4,6,0.46517643332481384,0.6521711945533752,0.42572563886642456,0.5949426889419556,-0.03945079445838928,-0.05722850561141968,0.169217050075531,-0.09552791714668274,-0.09813093394041061
0,ptbxl,v4,7,0.3358858525753021,0.17980507016181946,0.06577391177415848,-0.12493070214986801,-0.27011194825172424,-0.30473577976226807,-0.1907046139240265,-1.0824987888336182,-0.6614193916320801
0,ptbxl,v4,8,0.4124390780925751,0.7611889839172363,0.3609696328639984,0.6830328106880188,-0.05146944522857666,-0.07815617322921753,0.3220631778240204,-0.13570758700370789,-0.12127632647752762
0,ptbxl,v4,9,0.32038742303848267,0.41313570737838745,0.3080512583255768,0.40133410692214966,-0.012336164712905884,-0.011801600456237793,0.09328284859657288,0.012724517844617367,0.014686920680105686
0,ptbxl,v4,10,0.34948858618736267,0.2350221574306488,0.2502785623073578,0.12064825743436813,-0.09921002388000488,-0.11437389999628067,-0.12963029742240906,-0.24536751210689545,-0.22787217795848846
0,ptbxl,v4,11,0.38696619868278503,0.4644649624824524,0.2736983597278595,0.33581119775772095,-0.11326783895492554,-0.12865376472473145,0.06211283802986145,-0.29629039764404297,-0.2815234065055847
0,ptbxl,v4,12,0.28000688552856445,-0.05912752076983452,0.298725426197052,-0.040313027799129486,0.01871854066848755,0.018814492970705032,-0.3390384614467621,0.001143159344792366,-0.07677793502807617
0,ptbxl,v4,13,0.30053263902664185,0.18859481811523438,0.2616289556026459,0.14136727154254913,-0.03890368342399597,-0.04722754657268524,-0.12026168406009674,-0.08919376879930496,-0.07339818775653839
0,ptbxl,v4,14,0.4606735110282898,0.5760421752929688,0.4834952652454376,0.6070247888565063,0.022821754217147827,0.030982613563537598,0.12352952361106873,0.05536899343132973,0.05710363760590553
0,ptbxl,v4,15,0.24414502084255219,0.37893807888031006,0.15118888020515442,0.24750453233718872,-0.09295614063739777,-0.13143354654312134,0.0963156521320343,-0.3261329233646393,-0.24431996047496796
0,ptbxl,v4,16,0.46746987104415894,0.9080976247787476,0.44782549142837524,0.8836870193481445,-0.01964437961578369,-0.024410605430603027,0.4358615279197693,-0.028429213911294937,-0.022958878427743912
0,ptbxl,v4,17,0.4838268756866455,0.6915404200553894,0.5364241003990173,0.754645824432373,0.052597224712371826,0.06310540437698364,0.2182217240333557,0.08428707718849182,0.07314008474349976
0,ptbxl,v4,18,0.3569978177547455,0.44112491607666016,0.22668200731277466,0.28303012251853943,-0.13031581044197083,-0.15809479355812073,0.05634811520576477,-0.36864081025123596,-0.34195294976234436
0,ptbxl,v4,19,0.38131627440452576,0.055087845772504807,0.08346259593963623,-0.27553895115852356,-0.2978536784648895,-0.33062678575515747,-0.3590015470981598,-1.10621178150177,-0.25443971157073975
0,ptbxl,v4,20,0.27964895963668823,0.260999858379364,0.24523331224918365,0.21438556909561157,-0.03441564738750458,-0.04661428928375244,-0.030847743153572083,-0.13832980394363403,-0.1656138151884079
0,ptbxl,v4,21,0.35181093215942383,0.4032602310180664,1.0735646486282349,1.231497049331665,0.721753716468811,0.8282368183135986,0.15793240070343018,0.9925351142883301,0.954063355922699
0,ptbxl,v4,22,0.289016991853714,0.3545282483100891,0.23025786876678467,0.2730182409286499,-0.05875912308692932,-0.08151000738143921,0.042760372161865234,-0.17825348675251007,-0.15668858587741852
0,ptbxl,v4,23,0.3684239983558655,0.357346773147583,0.01547608058899641,-0.11470890045166016,-0.3529479205608368,-0.47205567359924316,-0.13018497824668884,-2.5921385288238525,-1.5954922437667847
0,ptbxl,v4,24,0.4602898955345154,0.38708385825157166,0.573864758014679,0.5112252831459045,0.11357486248016357,0.12414142489433289,-0.06263947486877441,0.11404582113027573,0.08173108100891113
0,ptbxl,v4,25,0.30987465381622314,0.21461300551891327,0.2984749674797058,0.19884388148784637,-0.011399686336517334,-0.015769124031066895,-0.09963108599185944,-0.026894299313426018,-0.04076092317700386
0,ptbxl,v4,26,0.3175659775733948,0.42059892416000366,0.25318944454193115,0.33662956953048706,-0.06437653303146362,-0.0839693546295166,0.08344012498855591,-0.19470252096652985,-0.17923644185066223
0,ptbxl,v4,27,0.4419308304786682,0.6040757298469543,0.36729860305786133,0.49695852398872375,-0.07463222742080688,-0.10711720585823059,0.12965992093086243,-0.1477888971567154,-0.13075284659862518
0,ptbxl,v4,28,0.23413202166557312,0.06688328087329865,0.2176564782857895,0.04639575257897377,-0.01647554337978363,-0.020487528294324875,-0.17126072943210602,-0.055170975625514984,-0.0198806319385767
0,ptbxl,v4,29,0.35419100522994995,0.4673132300376892,0.3127686679363251,0.4101886451244354,-0.04142233729362488,-0.057124584913253784,0.09741997718811035,-0.10755845904350281,-0.10390585660934448
0,ptbxl,v4,30,0.2507064640522003,0.37789690494537354,0.17287024855613708,0.27683964371681213,-0.07783621549606323,-0.1010572612285614,0.10396939516067505,-0.3154293894767761,-0.2794467508792877
0,ptbxl,v4,31,0.3415774703025818,0.25563377141952515,0.21782100200653076,0.10842423141002655,-0.12375646829605103,-0.1472095400094986,-0.10939677059650421,-0.3569626212120056,-0.2971789538860321
0,ptbxl,v4,32,0.3642876148223877,0.36275243759155273,0.6076188087463379,0.67140132188797,0.2433311939239502,0.30864888429641724,0.06378251314163208,0.4010789394378662,0.3562939763069153
0,ptbxl,v4,33,0.29078778624534607,0.4786718487739563,0.26470351219177246,0.4445967972278595,-0.02608427405357361,-0.0340750515460968,0.17989328503608704,-0.0960649624466896,-0.0963689312338829
0,ptbxl,v4,34,0.42480117082595825,0.5354602336883545,0.4387398362159729,0.5540787577629089,0.013938665390014648,0.018618524074554443,0.11533892154693604,0.0211702398955822,0.013951986096799374
0,ptbxl,v4,35,0.6043815612792969,0.6453986167907715,0.536267101764679,0.5546513795852661,-0.06811445951461792,-0.09074723720550537,0.018384277820587158,-0.09556522965431213,-0.09830235689878464
0,ptbxl,v4,36,0.31445106863975525,0.3853922486305237,0.3473956286907196,0.4258536994457245,0.032944560050964355,0.040461450815200806,0.07845807075500488,0.062259335070848465,0.042716555297374725
0,ptbxl,v4,37,0.32539382576942444,0.2573315501213074,1.3496248722076416,1.3874009847640991,1.0242310762405396,1.1300694942474365,0.03777611255645752,1.3434441089630127,1.2559795379638672
0,ptbxl,v4,38,0.3183169364929199,0.2964848577976227,0.2944140136241913,0.2618598937988281,-0.023902922868728638,-0.034624963998794556,-0.03255411982536316,-0.1089499369263649,-0.11273540556430817
0,ptbxl,v4,39,0.4112815856933594,0.34849533438682556,0.8172212839126587,0.7839774489402771,0.4059396982192993,0.43548211455345154,-0.03324383497238159,0.5013250708580017,0.4736431837081909
0,ptbxl,v4,40,0.38808494806289673,0.4523890018463135,0.4146745502948761,0.4836353063583374,0.02658960223197937,0.031246304512023926,0.0689607560634613,0.03235454484820366,0.01984725520014763
0,ptbxl,v4,41,0.4638654589653015,0.5184941291809082,0.32848310470581055,0.3562135100364685,-0.13538235425949097,-0.1622806191444397,0.02773040533065796,-0.31701019406318665,-0.31896162033081055
0,ptbxl,v4,42,0.34442541003227234,0.57774817943573,0.38185325264930725,0.621202290058136,0.03742784261703491,0.043454110622406006,0.23934903740882874,0.07853858917951584,0.058688919991254807
0,ptbxl,v4,43,0.2929140329360962,0.506001889705658,0.1874246448278427,0.3777344822883606,-0.10548938810825348,-0.12826740741729736,0.19030983746051788,-0.3942972421646118,-0.3174286186695099
0,ptbxl,v4,44,0.3354855179786682,0.4027954339981079,0.28308939933776855,0.3415752947330475,-0.05239611864089966,-0.061220139265060425,0.05848589539527893,-0.09311606734991074,-0.07777757942676544
0,ptbxl,v4,45,0.510992169380188,0.5006579756736755,0.3992540240287781,0.3873700499534607,-0.11173814535140991,-0.11328792572021484,-0.011883974075317383,-0.17963476479053497,-0.18047919869422913
0,ptbxl,v4,46,0.4618957042694092,0.4001229703426361,0.22676736116409302,0.11183767765760422,-0.23512834310531616,-0.2882852852344513,-0.1149296835064888,-0.528697669506073,-0.4672759175300598
0,ptbxl,v4,47,0.23520827293395996,0.11401873826980591,0.416326105594635,0.30408960580825806,0.18111783266067505,0.19007086753845215,-0.11223649978637695,0.5505752563476562,0.3738565742969513
0,ptbxl,v4,48,0.43484994769096375,0.3260244131088257,0.9205052852630615,0.8288158774375916,0.4856553375720978,0.5027914643287659,-0.09168940782546997,0.6285163164138794,0.6290521025657654
0,ptbxl,v4,49,0.5898009538650513,0.9375411868095398,0.3784745931625366,0.6611106395721436,-0.21132636070251465,-0.27643054723739624,0.28263604640960693,-0.38489779829978943,-0.3395644426345825
0,ptbxl,v4,50,0.47397780418395996,0.5664010047912598,0.3274715840816498,0.41089630126953125,-0.14650622010231018,-0.15550470352172852,0.08342471718788147,-0.21359369158744812,-0.19543050229549408
0,ptbxl,v4,51,0.40420395135879517,0.4487585425376892,0.3389159142971039,0.3697465658187866,-0.06528803706169128,-0.07901197671890259,0.03083065152168274,-0.16961820423603058,-0.17232197523117065
0,ptbxl,v4,52,0.30402031540870667,0.4723350703716278,0.2955126464366913,0.4626411497592926,-0.00850766897201538,-0.009693920612335205,0.16712850332260132,-0.01585378125309944,-0.014184948988258839
0,ptbxl,v4,53,0.3682591915130615,0.43714794516563416,0.08772079646587372,0.11606059968471527,-0.2805383801460266,-0.3210873603820801,0.028339803218841553,-1.108144760131836,-0.9943537712097168
0,ptbxl,v4,54,0.36702364683151245,0.4283343255519867,0.14410588145256042,0.18243709206581116,-0.22291776537895203,-0.24589723348617554,0.03833121061325073,-0.6497570276260376,-0.5860663652420044
0,ptbxl,v4,55,0.39871615171432495,0.7912415266036987,0.28029865026474,0.6378113627433777,-0.11841750144958496,-0.15343016386032104,0.3575127124786377,-0.3690883219242096,-0.28860437870025635
0,ptbxl,v4,56,0.2287415862083435,0.22330006957054138,0.14003773033618927,0.1201324462890625,-0.08870385587215424,-0.10316762328147888,-0.01990528404712677,-0.3743017315864563,-0.3322516977787018
0,ptbxl,v4,57,0.33779996633529663,0.3291044235229492,0.01917066052556038,0.016045251861214638,-0.31862929463386536,-0.3130591809749603,-0.0031254086643457413,-2.3744029998779297,-2.353109836578369
0,ptbxl,v4,58,0.42525970935821533,0.7236339449882507,0.20046886801719666,0.3754757344722748,-0.22479084134101868,-0.34815821051597595,0.17500686645507812,-0.6127274036407471,-0.5193180441856384
0,ptbxl,v4,59,0.4613719880580902,0.38374191522598267,0.34347525238990784,0.2556968331336975,-0.11789673566818237,-0.12804508209228516,-0.08777841925621033,-0.22150850296020508,-0.2230740487575531
0,ptbxl,v4,60,0.41357922554016113,0.287054181098938,0.054767265915870667,-0.05742249637842178,-0.35881197452545166,-0.3444766700267792,-0.11218976229429245,-1.5723953247070312,-1.098525047302246
0,ptbxl,v4,61,0.3987125754356384,0.6209262609481812,0.3767731785774231,0.5830699801445007,-0.021939396858215332,-0.03785628080368042,0.20629680156707764,-0.08344656974077225,-0.09649942070245743
0,ptbxl,v4,62,0.37312519550323486,0.6475557684898376,0.2257889211177826,0.4624127745628357,-0.14733627438545227,-0.18514299392700195,0.2366238534450531,-0.35641178488731384,-0.2859416902065277
0,ptbxl,v4,63,0.2592202126979828,0.2678024172782898,0.21233400702476501,0.21255332231521606,-0.04688620567321777,-0.05524909496307373,0.0002193152904510498,-0.1460069864988327,-0.13837222754955292
0,ptbxl,v5,0,0.2999268174171448,0.18696032464504242,0.19346435368061066,0.06031486392021179,-0.10646246373653412,-0.12664546072483063,-0.13314948976039886,-0.35924816131591797,-0.2861321270465851
0,ptbxl,v5,1,0.43142837285995483,0.8524376153945923,0.23610632121562958,0.5697172284126282,-0.19532205164432526,-0.2827203869819641,0.3336108922958374,-0.5028743147850037,-0.40487056970596313
0,ptbxl,v5,2,0.3683236539363861,0.6090784072875977,0.508809506893158,0.7801105380058289,0.14048585295677185,0.1710321307182312,0.2713010311126709,0.27516570687294006,0.22694824635982513
0,ptbxl,v5,3,0.26598265767097473,0.25060614943504333,0.1323898285627365,0.05521530285477638,-0.13359282910823822,-0.19539085030555725,-0.07717452943325043,-0.5933467149734497,-0.4837201237678528
0,ptbxl,v5,4,0.2734461724758148,0.3338277339935303,0.23082780838012695,0.2907434403896332,-0.042618364095687866,-0.043084293603897095,0.059915632009506226,-0.15501222014427185,-0.14470283687114716
0,ptbxl,v5,5,0.39455196261405945,0.41097769141197205,1.5140620470046997,1.583828091621399,1.1195100545883179,1.1728503704071045,0.06976604461669922,1.1316287517547607,1.1109899282455444
0,ptbxl,v5,6,0.3767591416835785,0.42816221714019775,0.7381950616836548,0.8595682382583618,0.3614359200000763,0.43140602111816406,0.12137317657470703,0.6057260036468506,0.565593421459198
0,ptbxl,v5,7,0.4606332778930664,0.958270788192749,0.34226930141448975,0.7965978384017944,-0.11836397647857666,-0.1616729497909546,0.4543285369873047,-0.2568826675415039,-0.19860650599002838
0,ptbxl,v5,8,0.31237807869911194,0.20970189571380615,0.3434421718120575,0.2410992830991745,0.031064093112945557,0.03139738738536835,-0.102342888712883,0.026473790407180786,-0.0018789528403431177
0,ptbxl,v5,9,0.3068990111351013,0.22344470024108887,0.284873366355896,0.19770871102809906,-0.022025644779205322,-0.025735989212989807,-0.08716465532779694,-0.07407122105360031,-0.09379570186138153
0,ptbxl,v5,10,0.36672526597976685,0.5144585371017456,0.36274605989456177,0.5067950487136841,-0.003979206085205078,-0.0076634883880615234,0.14404898881912231,-0.028382422402501106,-0.033464137464761734
0,ptbxl,v5,11,0.5023783445358276,0.5198705196380615,0.08151431381702423,0.0773390606045723,-0.4208640456199646,-0.4425314664840698,-0.004175253212451935,-1.3798564672470093,-1.301679253578186
0,ptbxl,v5,12,0.4404754042625427,0.5875269770622253,0.29970720410346985,0.37537944316864014,-0.14076820015907288,-0.2121475338935852,0.07567223906517029,-0.3637842535972595,-0.3585628867149353
0,ptbxl,v5,13,0.2201528400182724,-0.03600512072443962,0.27746546268463135,0.030997706577181816,0.05731262266635895,0.06700282543897629,-0.24646775424480438,0.1973542869091034,0.08217225968837738
0,ptbxl,v5,14,0.1736486405134201,0.013998022302985191,0.040842704474925995,-0.13036315143108368,-0.1328059434890747,-0.14436116814613342,-0.17120584845542908,-0.9878478050231934,-0.5495963096618652
0,ptbxl,v5,15,0.476961612701416,0.24381273984909058,0.2645251452922821,-0.004552436526864767,-0.2124364674091339,-0.24836517870426178,-0.2690775692462921,-0.4909061789512634,-0.41014277935028076
0,ptbxl,v5,16,0.40170156955718994,0.5624833106994629,0.4242851436138153,0.5993090271949768,0.022583574056625366,0.036825716495513916,0.1750238835811615,0.08164209872484207,0.08325294405221939
0,ptbxl,v5,17,0.5529825687408447,0.7392765879631042,0.4741452932357788,0.6361271142959595,-0.07883727550506592,-0.10314947366714478,0.16198182106018066,-0.1466815173625946,-0.14453904330730438
0,ptbxl,v5,18,0.39553722739219666,0.6359446048736572,0.41367295384407043,0.6605117917060852,0.01813572645187378,0.02456718683242798,0.24683883786201477,0.03277537226676941,0.02733936719596386
0,ptbxl,v5,19,0.2775838375091553,0.1659145951271057,0.01915397308766842,-0.16153256595134735,-0.2584298551082611,-0.32744717597961426,-0.18068653345108032,-2.0301685333251953,-1.0639373064041138
0,ptbxl,v5,20,0.3903346657752991,0.29402244091033936,0.3716883063316345,0.2714900076389313,-0.01864635944366455,-0.02253243327140808,-0.10019829869270325,-0.045870713889598846,-0.0645255520939827
0,ptbxl,v5,21,0.368748277425766,0.5322105884552002,0.24769753217697144,0.38038894534111023,-0.12105074524879456,-0.15182164311408997,0.1326914131641388,-0.27768972516059875,-0.23082134127616882
0,ptbxl,v5,22,0.33641502261161804,0.29988181591033936,0.03675253316760063,-0.04479903355240822,-0.2996625006198883,-0.3446808457374573,-0.08155156672000885,-1.6609792709350586,-1.1991496086120605
0,ptbxl,v5,23,0.4957612454891205,0.4096463620662689,0.6870248913764954,0.6400527954101562,0.19126364588737488,0.23040643334388733,-0.04697209596633911,0.2211781144142151,0.1904124915599823
0,ptbxl,v5,24,0.4582377076148987,0.5270688533782959,0.34932976961135864,0.3786452114582062,-0.10890793800354004,-0.14842364192008972,0.029315441846847534,-0.24759243428707123,-0.23881414532661438
0,ptbxl,v5,25,0.416683167219162,0.5097237825393677,0.19050411880016327,0.23886634409427643,-0.22617904841899872,-0.27085745334625244,0.04836222529411316,-0.5741549730300903,-0.5023229718208313
0,ptbxl,v5,26,0.31480085849761963,0.4060220420360565,0.9298450350761414,1.072984218597412,0.6150441765785217,0.6669621467590332,0.14313918352127075,0.9547460675239563,0.8852400779724121
0,ptbxl,v5,27,0.19491438567638397,0.0535505935549736,0.012348187156021595,-0.1562165766954422,-0.18256619572639465,-0.2097671627998352,-0.16856476664543152,-2.1041224002838135,-0.8351243138313293
0,ptbxl,v5,28,0.5707852840423584,0.6190375089645386,0.5447733998298645,0.5915330648422241,-0.026011884212493896,-0.027504444122314453,0.04675966501235962,-0.048853375017642975,-0.04886726662516594
0,ptbxl,v5,29,0.4390883147716522,0.6583013534545898,0.4409928619861603,0.6554756164550781,0.0019045472145080566,-0.0028257369995117188,0.21448275446891785,-0.048070136457681656,-0.04545937851071358
0,ptbxl,v5,30,0.32460817694664,0.3729214668273926,0.2813306152820587,0.3163066804409027,-0.0432775616645813,-0.05661478638648987,0.034976065158843994,-0.11614836007356644,-0.11128274351358414
0,ptbxl,v5,31,0.3777180314064026,0.5296446084976196,0.2899506092071533,0.4117739498615265,-0.08776742219924927,-0.11787065863609314,0.12182334065437317,-0.215287446975708,-0.19837483763694763
0,ptbxl,v5,32,0.5357545614242554,0.4083152413368225,1.0701526403427124,1.0268726348876953,0.534398078918457,0.6185573935508728,-0.04328000545501709,0.5514237284660339,0.5440002679824829
0,ptbxl,v5,33,0.27832770347595215,0.42711901664733887,0.20189633965492249,0.332511305809021,-0.07643136382102966,-0.09460771083831787,0.1306149661540985,-0.25739651918411255,-0.2157139778137207
0,ptbxl,v5,34,0.3300052881240845,0.4652802348136902,0.2750092148780823,0.3872550129890442,-0.0549960732460022,-0.078025221824646,0.11224579811096191,-0.159758523106575,-0.14252157509326935
0,ptbxl,v5,35,0.31394490599632263,0.3254268169403076,0.13803324103355408,0.10823739320039749,-0.17591166496276855,-0.21718943119049072,-0.029795847833156586,-0.6620970964431763,-0.565917432308197
0,ptbxl,v5,36,0.3026033043861389,0.5960134267807007,0.6005157828330994,0.9278931617736816,0.29791247844696045,0.33187973499298096,0.3273773789405823,0.5138310790061951,0.4059089124202728
0,ptbxl,v5,37,0.19093409180641174,0.1642589569091797,0.3274872899055481,0.3178063929080963,0.13655319809913635,0.15354743599891663,-0.009680896997451782,0.36884889006614685,0.3331417739391327
0,ptbxl,v5,38,0.4350094795227051,0.48152968287467957,0.32392618060112,0.3228055536746979,-0.11108329892158508,-0.1587241291999817,-0.0011206269264221191,-0.24792900681495667,-0.22338086366653442
0,ptbxl,v5,39,0.3177649676799774,0.4058237075805664,0.51390540599823,0.6409950852394104,0.19614043831825256,0.235171377658844,0.12708967924118042,0.3642200231552124,0.3317115306854248
0,ptbxl,v5,40,0.6465368270874023,0.7503575682640076,0.8371581435203552,0.9630897641181946,0.19062131643295288,0.212732195854187,0.12593162059783936,0.15535154938697815,0.13747794926166534
0,ptbxl,v5,41,0.22710594534873962,0.3787902295589447,0.06281324476003647,0.14357712864875793,-0.16429269313812256,-0.23521310091018677,0.08076388388872147,-0.9840860366821289,-0.7878578305244446
0,ptbxl,v5,42,0.34468692541122437,0.44127488136291504,0.2816334366798401,0.34553447365760803,-0.06305348873138428,-0.095740407705307,0.06390103697776794,-0.18395577371120453,-0.19267374277114868
0,ptbxl,v5,43,0.5204067230224609,0.8830307722091675,0.40201085805892944,0.727079451084137,-0.1183958649635315,-0.15595132112503052,0.3250685930252075,-0.24632669985294342,-0.19698862731456757
0,ptbxl,v5,44,0.3805508315563202,0.1994844675064087,0.11971668899059296,-0.08425088226795197,-0.2608341574668884,-0.28373533487319946,-0.20396757125854492,-0.8733035922050476,-0.5355983376502991
0,ptbxl,v5,45,0.487163782119751,0.5984138250350952,0.5160127878189087,0.6306033134460449,0.028849005699157715,0.03218948841094971,0.11459052562713623,0.040697548538446426,0.03924073651432991
0,ptbxl,v5,46,0.24160227179527283,0.4509085416793823,0.14201423525810242,0.3170093894004822,-0.09958803653717041,-0.13389915227890015,0.17499515414237976,-0.41732606291770935,-0.33743271231651306
0,ptbxl,v5,47,0.42499300837516785,0.44416937232017517,0.3566734492778778,0.36352595686912537,-0.06831955909729004,-0.0806434154510498,0.006852507591247559,-0.1608039140701294,-0.15895625948905945
0,ptbxl,v5,48,0.3010288178920746,0.12782685458660126,0.04493846371769905,-0.11780479550361633,-0.25609034299850464,-0.2456316500902176,-0.16274325549602509,-1.3537150621414185,-0.8235207796096802
0,ptbxl,v5,49,0.3896772265434265,0.7181925773620605,0.181631937623024,0.39649850130081177,-0.20804528892040253,-0.3216940760612488,0.21486656367778778,-0.6712936162948608,-0.5720577239990234
0,ptbxl,v5,50,0.39339324831962585,0.3656657934188843,0.551531970500946,0.54253751039505,0.1581387221813202,0.17687171697616577,-0.008994460105895996,0.2843889594078064,0.2708984315395355
0,ptbxl,v5,51,0.27385789155960083,0.38002723455429077,0.243892639875412,0.341696172952652,-0.029965251684188843,-0.038331061601638794,0.09780353307723999,-0.10532636940479279,-0.10343391448259354
0,ptbxl,v5,52,0.6061148643493652,0.8792440295219421,0.16525331139564514,0.3809524178504944,-0.4408615529537201,-0.49829161167144775,0.21569910645484924,-0.9213501214981079,-0.7102876901626587
0,ptbxl,v5,53,0.37799322605133057,0.4305374026298523,0.3514433205127716,0.3910387456417084,-0.02654990553855896,-0.03949865698814392,0.03959542512893677,-0.07178844511508942,-0.0732450857758522
0,ptbxl,v5,54,0.5415310263633728,0.669453501701355,0.5769262313842773,0.7057351469993591,0.03539520502090454,0.03628164529800415,0.1288089156150818,0.004854440689086914,-0.013490306213498116
0,ptbxl,v5,55,0.41395458579063416,0.6060916185379028,0.3340551257133484,0.5103954672813416,-0.07989946007728577,-0.09569615125656128,0.17634034156799316,-0.22397147119045258,-0.2030772715806961
0,ptbxl,v5,56,0.29907411336898804,0.4357157349586487,0.21550889313220978,0.31167101860046387,-0.08356522023677826,-0.12404471635818481,0.09616212546825409,-0.26223307847976685,-0.2240527868270874
0,ptbxl,v5,57,0.34932848811149597,0.35807156562805176,0.2814903259277344,0.2775880992412567,-0.0678381621837616,-0.08048346638679504,-0.003902226686477661,-0.18824359774589539,-0.18496829271316528
0,ptbxl,v5,58,0.28021371364593506,0.2913621664047241,0.30017924308776855,0.3174404799938202,0.019965529441833496,0.02607831358909607,0.017261236906051636,0.0440831184387207,0.016729889437556267
0,ptbxl,v5,59,0.3341277241706848,0.20245417952537537,0.15980461239814758,-0.003369078505784273,-0.17432311177253723,-0.20582325756549835,-0.16317369043827057,-0.5722294449806213,-0.4236382842063904
0,ptbxl,v5,60,0.2689380347728729,0.5273631811141968,0.2727586030960083,0.5340483784675598,0.003820568323135376,0.006685197353363037,0.2612897753715515,0.057778067886829376,0.04082939401268959
0,ptbxl,v5,61,0.296150803565979,0.08132538199424744,0.03451910242438316,-0.18790897727012634,-0.26163169741630554,-0.2692343592643738,-0.2224280834197998,-1.469807505607605,-0.6302827000617981
0,ptbxl,v5,62,0.3855448365211487,0.629649817943573,0.3306228518486023,0.5590069890022278,-0.05492198467254639,-0.07064282894134521,0.2283841371536255,-0.13804790377616882,-0.12718431651592255
0,ptbxl,v5,63,0.4778003692626953,0.7519676685333252,0.5576931238174438,0.8422684669494629,0.07989275455474854,0.0903007984161377,0.28457534313201904,0.09252604842185974,0.07457183301448822
0,ptbxl,v6,0,0.2882671356201172,0.22612592577934265,0.3016473650932312,0.24098876118659973,0.013380229473114014,0.01486283540725708,-0.06065860390663147,0.02254614792764187,-0.00038386796950362623
0,ptbxl,v6,1,0.2945985794067383,0.2899273633956909,0.24659161269664764,0.2305818647146225,-0.04800696671009064,-0.05934549868106842,-0.016009747982025146,-0.1489098072052002,-0.1297810971736908
0,ptbxl,v6,2,0.3122941851615906,0.24119572341442108,0.8206279277801514,0.810117781162262,0.5083337426185608,0.5689220428466797,-0.010510146617889404,0.7145887613296509,0.6366375684738159
0,ptbxl,v6,3,0.33922696113586426,0.08060576021671295,0.2137577384710312,-0.05884093418717384,-0.12546922266483307,-0.1394466906785965,-0.2725986838340759,-0.3868931233882904,-0.32322484254837036
0,ptbxl,v6,4,0.4154984951019287,0.6708043813705444,0.11737322807312012,0.21314407885074615,-0.2981252670288086,-0.4576603174209595,0.09577085077762604,-1.0661276578903198,-0.93472820520401
0,ptbxl,v6,5,0.24242334067821503,0.1985105276107788,0.028796754777431488,-0.03326082229614258,-0.21362659335136414,-0.2317713499069214,-0.062057577073574066,-1.6366925239562988,-1.183083415031433
0,ptbxl,v6,6,0.3002481758594513,0.42163944244384766,0.2089751809835434,0.29281407594680786,-0.0912729948759079,-0.1288253664970398,0.08383889496326447,-0.30513161420822144,-0.2813589572906494
0,ptbxl,v6,7,0.3217431604862213,0.40040045976638794,0.27162984013557434,0.3383028507232666,-0.05011332035064697,-0.06209760904312134,0.06667301058769226,-0.1396077573299408,-0.13477249443531036
0,ptbxl,v6,8,0.32300907373428345,0.25303709506988525,0.18511395156383514,0.06920082867145538,-0.1378951221704483,-0.18383626639842987,-0.11591312289237976,-0.4001520872116089,-0.33303821086883545
0,ptbxl,v6,9,0.3154979348182678,0.004048701375722885,0.15879487991333008,-0.2200443297624588,-0.15670305490493774,-0.22409303486347198,-0.3788391947746277,-0.5841759443283081,-0.38606512546539307
0,ptbxl,v6,10,0.22451087832450867,0.20822030305862427,0.1721552014350891,0.14120697975158691,-0.052355676889419556,-0.06701332330703735,-0.030948221683502197,-0.20520292222499847,-0.17119130492210388
0,ptbxl,v6,11,0.3438798189163208,0.46625494956970215,0.3646264374256134,0.5013754367828369,0.020746618509292603,0.035120487213134766,0.1367489993572235,0.12943343818187714,0.13339227437973022
0,ptbxl,v6,12,0.2836686372756958,0.2629328966140747,0.30961617827415466,0.29068896174430847,0.025947540998458862,0.027756065130233765,-0.01892721652984619,0.03283247724175453,0.010448632761836052
0,ptbxl,v6,13,0.5437217950820923,0.5351148247718811,0.8584516048431396,0.8489307165145874,0.31472980976104736,0.3138158917427063,-0.009520888328552246,0.3299988806247711,0.3312632739543915
0,ptbxl,v6,14,0.2239348143339157,0.42244720458984375,0.34614938497543335,0.5674179792404175,0.12221457064151764,0.14497077465057373,0.22126859426498413,0.39185771346092224,0.31343260407447815
0,ptbxl,v6,15,0.628490686416626,0.5463315844535828,0.6232892870903015,0.5374845266342163,-0.005201399326324463,-0.008847057819366455,-0.0858047604560852,-0.023623451590538025,-0.039516352117061615
0,ptbxl,v6,16,0.37669283151626587,0.5080922842025757,0.2970246374607086,0.41491881012916565,-0.07966819405555725,-0.09317347407341003,0.11789417266845703,-0.17060817778110504,-0.14947734773159027
0,ptbxl,v6,17,0.3673815131187439,0.33202171325683594,1.4128280878067017,1.4650951623916626,1.0454466342926025,1.1330734491348267,0.05226707458496094,1.16664719581604,1.1647053956985474
0,ptbxl,v6,18,0.3036477565765381,0.18917623162269592,0.159235879778862,-0.02069057524204254,-0.1444118767976761,-0.20986680686473846,-0.17992645502090454,-0.5661897659301758,-0.4102572202682495
0,ptbxl,v6,19,0.4060916602611542,0.16411758959293365,0.31782761216163635,0.04700114205479622,-0.08826404809951782,-0.11711645126342773,-0.27082645893096924,-0.2082027941942215,-0.18728725612163544
0,ptbxl,v6,20,0.49320006370544434,0.7225133776664734,0.5784018039703369,0.8164340853691101,0.08520174026489258,0.09392070770263672,0.2380322813987732,0.07887619733810425,0.059407662600278854
0,ptbxl,v6,21,0.36865532398223877,0.5352739691734314,0.3043961226940155,0.4441533386707306,-0.06425920128822327,-0.0911206305027008,0.1397572159767151,-0.16377538442611694,-0.1482016146183014
0,ptbxl,v6,22,0.4856043756008148,0.5698911547660828,0.046260252594947815,0.09465528279542923,-0.4393441081047058,-0.47523587942123413,0.048395030200481415,-1.5071946382522583,-1.3048964738845825
0,ptbxl,v6,23,0.34101590514183044,0.6618976593017578,0.24067211151123047,0.5294698476791382,-0.10034379363059998,-0.13242781162261963,0.2887977361679077,-0.30489295721054077,-0.24271439015865326
0,ptbxl,v6,24,0.14650264382362366,-0.23626510798931122,0.08171664923429489,-0.30105799436569214,-0.06478599458932877,-0.06479288637638092,-0.3827746510505676,-0.4234151244163513,-0.05737266317009926
0,ptbxl,v6,25,0.17296797037124634,0.2423495650291443,0.5192587971687317,0.6309276223182678,0.34629082679748535,0.38857805728912354,0.11166882514953613,0.8644657135009766,0.7665917277336121
0,ptbxl,v6,26,0.30921444296836853,0.3291624188423157,0.2851351797580719,0.29898571968078613,-0.02407926321029663,-0.03017669916152954,0.013850539922714233,-0.042083509266376495,-0.035291191190481186
0,ptbxl,v6,27,0.3632647693157196,0.3545275628566742,0.09779588133096695,0.06554048508405685,-0.26546889543533325,-0.28898707032203674,-0.032255396246910095,-0.9676135778427124,-0.8917917609214783
0,ptbxl,v6,28,0.2290087342262268,0.3154454231262207,0.5050797462463379,0.6643950939178467,0.2760710120201111,0.348949670791626,0.1593153476715088,0.6843985319137573,0.6384490728378296
0,ptbxl,v6,29,0.44698366522789,0.20629367232322693,0.3675895631313324,0.11484219878911972,-0.07939410209655762,-0.09145147353410721,-0.2527473568916321,-0.1930207461118698,-0.20247267186641693
0,ptbxl,v6,30,0.20694713294506073,0.20020870864391327,0.37775883078575134,0.37890973687171936,0.1708116978406906,0.1787010282278061,0.0011509060859680176,0.34752213954925537,0.320956826210022
0,ptbxl,v6,31,0.4592013359069824,0.7493194341659546,0.43027713894844055,0.7018502950668335,-0.02892419695854187,-0.047469139099121094,0.27157315611839294,-0.08170247822999954,-0.08773031830787659
0,ptbxl,v6,32,0.3702253997325897,0.42092832922935486,0.32789984345436096,0.36899152398109436,-0.04232555627822876,-0.0519368052482605,0.0410916805267334,-0.1306876391172409,-0.12846674025058746
0,ptbxl,v6,33,0.1903603971004486,0.13715779781341553,0.09296200424432755,0.018362026661634445,-0.09739839285612106,-0.11879576742649078,-0.0745999813079834,-0.5759260058403015,-0.5193936824798584
0,ptbxl,v6,34,0.4338473677635193,0.486882746219635,0.2962805926799774,0.3185587227344513,-0.13756677508354187,-0.16832402348518372,0.022278130054473877,-0.30527445673942566,-0.287712424993515
0,ptbxl,v6,35,0.48195716738700867,0.44375211000442505,0.20176278054714203,0.11797783523797989,-0.28019440174102783,-0.32577428221702576,-0.08378494530916214,-0.6910121440887451,-0.6296895742416382
0,ptbxl,v6,36,0.27246493101119995,0.30710333585739136,0.3034777045249939,0.3443657159805298,0.031012773513793945,0.03726238012313843,0.04088801145553589,0.0684375986456871,0.04798154905438423
0,ptbxl,v6,37,0.2739649713039398,-0.016586512327194214,0.09578929841518402,-0.208047017455101,-0.1781756728887558,-0.1914605051279068,-0.30383631587028503,-0.8021413087844849,-0.3047736585140228
0,ptbxl,v6,38,0.25897079706192017,0.2841756343841553,0.0923539474606514,0.08360698819160461,-0.16661685705184937,-0.20056864619255066,-0.008746959269046783,-0.7540894150733948,-0.6616043448448181
0,ptbxl,v6,39,0.38550668954849243,0.23767021298408508,0.5067983269691467,0.3692139685153961,0.1212916374206543,0.13154375553131104,-0.1375843584537506,0.15655703842639923,0.1034688875079155
0,ptbxl,v6,40,0.4420487582683563,0.42235320806503296,0.11699134111404419,0.08979109674692154,-0.32505741715431213,-0.332562118768692,-0.02720024436712265,-0.8144537210464478,-0.8036871552467346
0,ptbxl,v6,41,0.24834662675857544,0.11984866112470627,0.20574180781841278,0.07579341530799866,-0.04260481894016266,-0.04405524581670761,-0.12994839251041412,-0.14662225544452667,-0.1847267895936966
0,ptbxl,v6,42,0.4440864026546478,0.6067044734954834,0.42445802688598633,0.579697847366333,-0.0196283757686615,-0.02700662612915039,0.15523982048034668,-0.07156407088041306,-0.07232780754566193
0,ptbxl,v6,43,0.3464350700378418,0.4566962718963623,0.3398689925670624,0.44602662324905396,-0.006566077470779419,-0.01066964864730835,0.10615763068199158,-0.03194696083664894,-0.03648674488067627
0,ptbxl,v6,44,0.24412041902542114,0.3847929835319519,0.2100435346364975,0.34221139550209045,-0.034076884388923645,-0.04258158802986145,0.13216786086559296,-0.11392348259687424,-0.10427625477313995
0,ptbxl,v6,45,0.20796462893486023,0.10295724868774414,0.17628924548625946,0.0650155171751976,-0.03167538344860077,-0.03794173151254654,-0.11127372831106186,-0.12411513924598694,-0.12510991096496582
0,ptbxl,v6,46,0.24627339839935303,0.3718089461326599,0.22285538911819458,0.3395223021507263,-0.023418009281158447,-0.032286643981933594,0.11666691303253174,-0.09580443799495697,-0.0888504683971405
0,ptbxl,v6,47,0.3592238128185272,0.16971608996391296,0.31378865242004395,0.10050757974386215,-0.045435160398483276,-0.06920851022005081,-0.2132810652256012,-0.15648843348026276,-0.17845317721366882
0,ptbxl,v6,48,0.3365285098552704,0.3250900208950043,0.278030663728714,0.24195389449596405,-0.058497846126556396,-0.08313612639904022,-0.03607676923274994,-0.20160959661006927,-0.2015656977891922
0,ptbxl,v6,49,0.39013850688934326,0.44450879096984863,0.41582104563713074,0.4759466350078583,0.025682538747787476,0.031437844038009644,0.06012558937072754,0.05371076241135597,0.04383464902639389
0,ptbxl,v6,50,0.3300345540046692,0.2488868534564972,0.35589033365249634,0.27975282073020935,0.02585577964782715,0.030865967273712158,-0.07613751292228699,0.045870229601860046,0.002806298201903701
0,ptbxl,v6,51,0.1409631371498108,0.06418748944997787,0.10728960484266281,0.015860266983509064,-0.03367353230714798,-0.04832722246646881,-0.09142933785915375,-0.20227950811386108,-0.17210885882377625
0,ptbxl,v6,52,0.35337018966674805,0.5586304068565369,0.13442406058311462,0.2951633036136627,-0.21894612908363342,-0.26346710324287415,0.1607392430305481,-0.696887731552124,-0.5407308340072632
0,ptbxl,v6,53,0.3495008945465088,0.13090480864048004,0.34568169713020325,0.12496857345104218,-0.003819197416305542,-0.005936235189437866,-0.22071312367916107,-0.04547921195626259,-0.08295129984617233
0,ptbxl,v6,54,0.43921661376953125,0.5463477373123169,0.30130550265312195,0.3261519968509674,-0.1379111111164093,-0.2201957404613495,0.02484649419784546,-0.3466036915779114,-0.346179336309433
0,ptbxl,v6,55,0.46994179487228394,0.3076511025428772,0.4038957953453064,0.21051783859729767,-0.06604599952697754,-0.09713326394557953,-0.19337795674800873,-0.19757813215255737,-0.2574916481971741
0,ptbxl,v6,56,0.46200522780418396,0.39929741621017456,0.6729603409767151,0.6418089270591736,0.21095511317253113,0.24251151084899902,-0.031151413917541504,0.304424911737442,0.2870197296142578
0,ptbxl,v6,57,0.5074459314346313,0.4313564896583557,0.47594693303108215,0.39763256907463074,-0.031498998403549194,-0.033723920583724976,-0.07831436395645142,-0.035905566066503525,-0.035043682903051376
0,ptbxl,v6,58,0.1973090022802353,0.1602005511522293,0.07900982350111008,-0.02506784349679947,-0.11829917877912521,-0.18526840209960938,-0.10407766699790955,-0.7679188251495361,-0.5738558173179626
0,ptbxl,v6,59,0.3498658537864685,0.5293850898742676,0.1836598515510559,0.3147173821926117,-0.1662060022354126,-0.21466770768165588,0.1310575306415558,-0.5097463130950928,-0.4375547468662262
0,ptbxl,v6,60,0.49363064765930176,0.7244862914085388,0.49066418409347534,0.720538318157196,-0.002966463565826416,-0.0039479732513427734,0.2298741340637207,-0.00855470634996891,-0.011733978986740112
0,ptbxl,v6,61,0.3289720416069031,0.40430086851119995,0.445498526096344,0.5327381491661072,0.11652648448944092,0.12843728065490723,0.08723962306976318,0.22498881816864014,0.2094593346118927
0,ptbxl,v6,62,0.6566115617752075,0.7568981051445007,0.6343530416488647,0.7195092439651489,-0.022258520126342773,-0.03738886117935181,0.08515620231628418,-0.07107937335968018,-0.08991560339927673
0,ptbxl,v6,63,0.38412031531333923,0.3736136853694916,1.360626220703125,1.4321889877319336,0.9765058755874634,1.0585752725601196,0.0715627670288086,1.1595045328140259,1.1224592924118042
0,cpsc,ii,0,0.3120241165161133,0.23184239864349365,0.391910195350647,0.31639108061790466,0.07988607883453369,0.08454868197441101,-0.07551911473274231,0.14870521426200867,0.14324846863746643
0,cpsc,ii,1,0.3060482442378998,0.32812052965164185,0.21686378121376038,0.21553988754749298,-0.0891844630241394,-0.11258064210414886,-0.001323893666267395,-0.35172343254089355,-0.3293136656284332
0,cpsc,ii,2,0.3083800673484802,0.47989410161972046,0.2097283899784088,0.36704495549201965,-0.09865167737007141,-0.1128491461277008,0.15731656551361084,-0.33936795592308044,-0.2595215141773224
0,cpsc,ii,3,0.24543273448944092,0.13251149654388428,0.2966434955596924,0.19785548746585846,0.051210761070251465,0.06534399092197418,-0.09878800809383392,0.1975754201412201,0.15370698273181915
0,cpsc,ii,4,0.5622727870941162,0.5630637407302856,0.6032722592353821,0.6182129383087158,0.04099947214126587,0.055149197578430176,0.01494067907333374,0.0765509381890297,0.08513404428958893
0,cpsc,ii,5,0.5771350264549255,0.5360245704650879,0.5207357406616211,0.46598348021507263,-0.05639928579330444,-0.07004109025001526,-0.05475226044654846,-0.10645594447851181,-0.11012966185808182
0,cpsc,ii,6,0.31770676374435425,0.1538832187652588,0.36374327540397644,0.20548810064792633,0.04603651165962219,0.05160488188266754,-0.1582551747560501,0.09656760841608047,0.0654725506901741
0,cpsc,ii,7,0.20884239673614502,0.3539891839027405,0.155265212059021,0.28070035576820374,-0.05357718467712402,-0.07328882813453674,0.12543514370918274,-0.3048158884048462,-0.27292945981025696
0,cpsc,ii,8,0.47256189584732056,0.5897551774978638,0.4276804029941559,0.53281569480896,-0.04488149285316467,-0.05693948268890381,0.10513529181480408,-0.14923353493213654,-0.15060901641845703
0,cpsc,ii,9,0.2580685019493103,0.38734230399131775,0.18986889719963074,0.28882890939712524,-0.06819960474967957,-0.0985133945941925,0.0989600121974945,-0.23457229137420654,-0.18627546727657318
0,cpsc,ii,10,0.2968840003013611,0.43575164675712585,0.22423936426639557,0.3595270812511444,-0.07264463603496552,-0.07622456550598145,0.13528771698474884,-0.19477848708629608,-0.1610233187675476
0,cpsc,ii,11,0.24848416447639465,0.19196079671382904,0.3027452230453491,0.26093292236328125,0.05426105856895447,0.06897212564945221,-0.04181230068206787,0.17668502032756805,0.16690343618392944
0,cpsc,ii,12,0.3751019835472107,0.3368920683860779,0.2355768382549286,0.14042775332927704,-0.1395251452922821,-0.19646431505680084,-0.09514908492565155,-0.4055885374546051,-0.3497720956802368
0,cpsc,ii,13,0.4749389886856079,0.3755943477153778,0.5466718077659607,0.4594807028770447,0.07173281908035278,0.08388635516166687,-0.08719110488891602,0.10933542251586914,0.10173515975475311
0,cpsc,ii,14,0.22190141677856445,0.0061494940891861916,0.4308129847049713,0.30718618631362915,0.20891156792640686,0.30103668570518494,-0.12362679839134216,0.5744481086730957,0.42166757583618164
0,cpsc,ii,15,0.17495672404766083,0.06339144706726074,0.25742754340171814,0.16872718930244446,0.08247081935405731,0.10533574223518372,-0.08870035409927368,0.32978999614715576,0.28265509009361267
0,cpsc,ii,16,0.2608567178249359,0.24439500272274017,0.6713065505027771,0.6584778428077698,0.4104498326778412,0.4140828251838684,-0.012828707695007324,0.8271241188049316,0.816629946231842
0,cpsc,ii,17,0.5596625208854675,0.7599889039993286,0.5599987506866455,0.7639044523239136,0.0003362298011779785,0.003915548324584961,0.20390570163726807,0.03048008494079113,0.030757440254092216
0,cpsc,ii,18,0.41770464181900024,0.3213237524032593,0.4547751545906067,0.3610580265522003,0.037070512771606445,0.03973427414894104,-0.09371712803840637,0.048326801508665085,0.03858683630824089
0,cpsc,ii,19,0.2796734869480133,0.30971482396125793,0.23592428863048553,0.2572382986545563,-0.04374919831752777,-0.05247652530670166,0.02131401002407074,-0.1332227885723114,-0.12349842488765717
0,cpsc,ii,20,0.3500036895275116,0.36275315284729004,0.33909714221954346,0.3495994806289673,-0.01090654730796814,-0.013153672218322754,0.010502338409423828,-0.05653213709592819,-0.0624949187040329
0,cpsc,ii,21,0.24594959616661072,0.11196042597293854,0.19950677454471588,0.06429117918014526,-0.046442821621894836,-0.047669246792793274,-0.13521559536457062,-0.16631965339183807,-0.17627915740013123
0,cpsc,ii,22,0.47868332266807556,0.629431962966919,0.5308393239974976,0.699517548084259,0.052156001329422,0.07008558511734009,0.16867822408676147,0.10197030752897263,0.09692850708961487
0,cpsc,ii,23,0.27874743938446045,0.16841641068458557,0.27025580406188965,0.1577349156141281,-0.0084916353225708,-0.010681495070457458,-0.11252088844776154,-0.027882356196641922,-0.04090466350317001
0,cpsc,ii,24,0.29481467604637146,0.3808339536190033,0.12461238354444504,0.15497547388076782,-0.17020228505134583,-0.22585847973823547,0.030363090336322784,-0.759884774684906,-0.6852607131004333
0,cpsc,ii,25,0.20752844214439392,0.185481458902359,0.1489640176296234,0.126095712184906,-0.05856442451477051,-0.059385746717453,-0.022868305444717407,-0.2295513153076172,-0.21987362205982208
0,cpsc,ii,26,0.24357378482818604,0.19343100488185883,0.19592219591140747,0.13783061504364014,-0.047651588916778564,-0.05560038983821869,-0.058091580867767334,-0.15962859988212585,-0.15611490607261658
0,cpsc,ii,27,0.3069937825202942,0.3601982593536377,0.32758280634880066,0.38268643617630005,0.02058902382850647,0.022488176822662354,0.05510362982749939,0.017880206927657127,0.000884142005816102
0,cpsc,ii,28,0.4035845696926117,0.1782962679862976,0.31596750020980835,0.08002360165119171,-0.08761706948280334,-0.0982726663351059,-0.23594389855861664,-0.23238489031791687,-0.1640486866235733
0,cpsc,ii,29,0.6002222299575806,0.42810389399528503,0.6036169528961182,0.42981189489364624,0.0033947229385375977,0.001708000898361206,-0.17380505800247192,-0.00688539631664753,-0.0218597911298275
0,cpsc,ii,30,0.36257967352867126,0.4948354959487915,0.44470539689064026,0.604346513748169,0.082125723361969,0.10951101779937744,0.1596411168575287,0.16339650750160217,0.14354848861694336
0,cpsc,ii,31,0.6156256198883057,0.6566649079322815,0.5475085973739624,0.5720389485359192,-0.06811702251434326,-0.0846259593963623,0.024530351161956787,-0.15365442633628845,-0.1663702428340912
0,cpsc,ii,32,0.23302114009857178,0.4645775556564331,0.24389582872390747,0.4779844582080841,0.010874688625335693,0.013406902551651001,0.23408862948417664,0.02579173631966114,0.018870355561375618
0,cpsc,ii,33,0.3677225112915039,0.35863980650901794,0.33234021067619324,0.3209010064601898,-0.03538230061531067,-0.037738800048828125,-0.011439204216003418,-0.06310344487428665,-0.057716939598321915
0,cpsc,ii,34,0.3851052224636078,0.24988186359405518,0.44005176424980164,0.3211592435836792,0.05494654178619385,0.07127737998962402,-0.11889252066612244,0.09915918856859207,0.09255756437778473
0,cpsc,ii,35,0.5318697690963745,0.5505486726760864,0.5502980947494507,0.568683385848999,0.018428325653076172,0.018134713172912598,0.01838529109954834,-0.0026016670744866133,-0.014876925386488438
0,cpsc,ii,36,0.38250285387039185,0.3640690743923187,0.5067171454429626,0.5017519593238831,0.1242142915725708,0.13768288493156433,-0.00496518611907959,0.24688193202018738,0.2430698573589325
0,cpsc,ii,37,0.3766806125640869,0.5478407740592957,0.25093960762023926,0.3978201150894165,-0.12574100494384766,-0.15002065896987915,0.14688050746917725,-0.3597765862941742,-0.3128395974636078
0,cpsc,ii,38,0.41710934042930603,0.4282507598400116,0.3616272211074829,0.3597986102104187,-0.05548211932182312,-0.0684521496295929,-0.001828610897064209,-0.12402526289224625,-0.1242368146777153
0,cpsc,ii,39,0.3240461051464081,0.5280656814575195,0.4389166235923767,0.6561206579208374,0.11487051844596863,0.12805497646331787,0.2172040343284607,0.24352258443832397,0.2012394368648529
0,cpsc,ii,40,0.3283364474773407,0.5250279903411865,0.33509913086891174,0.5288334488868713,0.006762683391571045,0.0038054585456848145,0.1937343180179596,-0.03287097439169884,-0.03970281779766083
0,cpsc,ii,41,0.34046608209609985,0.6471823453903198,0.3057659864425659,0.5947061777114868,-0.034700095653533936,-0.05247616767883301,0.2889401912689209,-0.12334877997636795,-0.113517165184021
0,cpsc,ii,42,0.40249305963516235,0.5885404348373413,0.3369542956352234,0.49110567569732666,-0.06553876399993896,-0.09743475914001465,0.15415138006210327,-0.2011333405971527,-0.19924044609069824
0,cpsc,ii,43,0.39933204650878906,0.3747221827507019,0.4616052210330963,0.44924646615982056,0.06227317452430725,0.07452428340911865,-0.012358754873275757,0.08202829957008362,0.06300283223390579
0,cpsc,ii,44,0.2973514795303345,0.3882971704006195,0.19198426604270935,0.25878942012786865,-0.10536721348762512,-0.12950775027275085,0.0668051540851593,-0.36995720863342285,-0.3326205909252167
0,cpsc,ii,45,0.3117089867591858,0.2927103042602539,0.379086434841156,0.36974576115608215,0.06737744808197021,0.07703545689582825,-0.009340673685073853,0.1329841911792755,0.11628856509923935
0,cpsc,ii,46,0.49647626280784607,0.24075505137443542,0.4343559443950653,0.16475893557071686,-0.06212031841278076,-0.07599611580371857,-0.26959699392318726,-0.12889252603054047,-0.11717502027750015
0,cpsc,ii,47,0.4299476742744446,0.6452504396438599,0.41146737337112427,0.6230398416519165,-0.018480300903320312,-0.02221059799194336,0.21157246828079224,-0.031836193054914474,-0.029101727530360222
0,cpsc,ii,48,0.42819643020629883,0.4987117052078247,0.3880923092365265,0.4393294155597687,-0.04010412096977234,-0.05938228964805603,0.05123710632324219,-0.1232794001698494,-0.13071942329406738
0,cpsc,ii,49,0.3670603036880493,0.3322535753250122,0.5586548447608948,0.5493956804275513,0.19159454107284546,0.21714210510253906,-0.009259164333343506,0.3446846306324005,0.3355604112148285
0,cpsc,ii,50,0.582837700843811,0.8132936358451843,0.5829473733901978,0.8121281862258911,0.00010967254638671875,-0.0011654496192932129,0.22918081283569336,-0.006575699429959059,-0.009182943031191826
0,cpsc,ii,51,0.38347238302230835,0.198555588722229,0.5437710881233215,0.39826110005378723,0.16029870510101318,0.19970551133155823,-0.1455099880695343,0.285618394613266,0.2705339193344116
0,cpsc,ii,52,0.6723631620407104,0.7242827415466309,0.6991130113601685,0.7516807913780212,0.026749849319458008,0.02739804983139038,0.05256778001785278,0.007969367317855358,0.004220033064484596
0,cpsc,ii,53,0.2838476300239563,0.25022855401039124,0.22108066082000732,0.16927354037761688,-0.06276696920394897,-0.08095501363277435,-0.05180712044239044,-0.21672479808330536,-0.19591785967350006
0,cpsc,ii,54,0.32073596119880676,0.3085426688194275,0.10066349059343338,0.08168963342905045,-0.22007247805595398,-0.22685304284095764,-0.018973857164382935,-0.9583844542503357,-0.9015400409698486
0,cpsc,ii,55,0.4441305994987488,0.579660177230835,0.4093773066997528,0.5333987474441528,-0.03475329279899597,-0.04626142978668213,0.12402144074440002,-0.09176550060510635,-0.0953102856874466
0,cpsc,ii,56,0.2515714168548584,0.43719884753227234,0.2667454481124878,0.4637603163719177,0.015174031257629395,0.026561468839645386,0.19701486825942993,0.08615869283676147,0.09784743934869766
0,cpsc,ii,57,0.3283025920391083,0.22759024798870087,0.5268740057945251,0.440116822719574,0.19857141375541687,0.2125265747308731,-0.08675718307495117,0.4574401080608368,0.3952149450778961
0,cpsc,ii,58,0.39994189143180847,0.5130543112754822,0.259339302778244,0.3538784980773926,-0.14060258865356445,-0.1591758131980896,0.09453919529914856,-0.4103008806705475,-0.3678925931453705
0,cpsc,ii,59,0.4000285565853119,0.3801593780517578,0.3553367853164673,0.3158748745918274,-0.044691771268844604,-0.06428450345993042,-0.03946191072463989,-0.12616407871246338,-0.11865747720003128
0,cpsc,ii,60,0.4195220470428467,0.4214801788330078,0.34593671560287476,0.3133804500102997,-0.07358533143997192,-0.10809972882270813,-0.03255626559257507,-0.19773000478744507,-0.19013048708438873
0,cpsc,ii,61,0.44323965907096863,0.4855983853340149,0.42828479409217834,0.46588748693466187,-0.014954864978790283,-0.019710898399353027,0.03760269284248352,-0.047880902886390686,-0.053952571004629135
0,cpsc,ii,62,0.34969449043273926,0.2794068157672882,0.3595860004425049,0.28728431463241577,0.009891510009765625,0.007877498865127563,-0.07230168581008911,-0.03444976732134819,-0.04781438037753105
0,cpsc,ii,63,0.23926810920238495,0.1202213391661644,0.19634738564491272,0.0728149265050888,-0.04292072355747223,-0.04740641266107559,-0.12353245913982391,-0.1211702823638916,-0.07852164655923843
0,cpsc,iii,0,0.401824414730072,0.6223015785217285,0.32769984006881714,0.5121197700500488,-0.07412457466125488,-0.11018180847167969,0.1844199299812317,-0.22883404791355133,-0.22662265598773956
0,cpsc,iii,1,0.32603368163108826,0.34491655230522156,0.5945526957511902,0.6390985250473022,0.26851901412010193,0.2941819727420807,0.04454582929611206,0.5292984843254089,0.5190578103065491
0,cpsc,iii,2,0.45882630348205566,0.3304438591003418,0.5287927985191345,0.4061271548271179,0.06996649503707886,0.07568329572677612,-0.1226656436920166,0.11114444583654404,0.10962656885385513
0,cpsc,iii,3,0.3456413149833679,0.5099126100540161,0.29680144786834717,0.4432614743709564,-0.04883986711502075,-0.06665113568305969,0.14646002650260925,-0.12215902656316757,-0.10610349476337433
0,cpsc,iii,4,0.28912782669067383,0.2843513786792755,0.43221747875213623,0.4424764811992645,0.1430896520614624,0.158125102519989,0.010259002447128296,0.28438884019851685,0.2645421326160431
0,cpsc,iii,5,0.4517326056957245,0.3245226740837097,0.43610644340515137,0.3054206371307373,-0.01562616229057312,-0.019102036952972412,-0.13068580627441406,-0.03692619502544403,-0.034871842712163925
0,cpsc,iii,6,0.463383287191391,0.6856195330619812,0.341859370470047,0.5002230405807495,-0.121523916721344,-0.1853964924812317,0.15836367011070251,-0.2901538610458374,-0.28537479043006897
0,cpsc,iii,7,0.37843966484069824,0.8736857771873474,0.25707393884658813,0.6898884773254395,-0.12136572599411011,-0.18379729986190796,0.4328145384788513,-0.3921835720539093,-0.2952183783054352
0,cpsc,iii,8,0.4687443971633911,0.8842636346817017,0.45802998542785645,0.8669933080673218,-0.010714411735534668,-0.017270326614379883,0.40896332263946533,-0.022895880043506622,-0.023211343213915825
0,cpsc,iii,9,0.3526090979576111,0.39598792791366577,0.3299641013145447,0.36799463629722595,-0.022644996643066406,-0.02799329161643982,0.038030534982681274,-0.07374725490808487,-0.07799948751926422
0,cpsc,iii,10,0.4411022663116455,0.44286811351776123,0.32991355657577515,0.31083402037620544,-0.11118870973587036,-0.1320340931415558,-0.019079536199569702,-0.2752390503883362,-0.27612215280532837
0,cpsc,iii,11,0.4221879839897156,0.22707530856132507,0.43264907598495483,0.23656286299228668,0.010461091995239258,0.009487554430961609,-0.19608621299266815,-0.018196146935224533,-0.042986392974853516
0,cpsc,iii,12,0.3162575364112854,0.40087413787841797,0.3725212812423706,0.478334903717041,0.056263744831085205,0.07746076583862305,0.10581362247467041,0.12902697920799255,0.11354058235883713
0,cpsc,iii,13,0.3888717591762543,0.30212506651878357,0.4079001545906067,0.3185303509235382,0.019028395414352417,0.01640528440475464,-0.08936980366706848,-0.028402045369148254,-0.06092959642410278
0,cpsc,iii,14,0.2914062738418579,0.4685385227203369,0.22015103697776794,0.371524453163147,-0.07125523686408997,-0.09701406955718994,0.15137341618537903,-0.25298452377319336,-0.22967739403247833
0,cpsc,iii,15,0.531965970993042,0.6715236902236938,0.5669214725494385,0.7180416584014893,0.034955501556396484,0.04651796817779541,0.15112018585205078,0.0600040927529335,0.05664246156811714
0,cpsc,iii,16,0.28969806432724,0.32282906770706177,0.2746005058288574,0.3045962452888489,-0.015097558498382568,-0.01823282241821289,0.029995739459991455,-0.03973190858960152,-0.034346431493759155
0,cpsc,iii,17,0.4979391098022461,0.1637040674686432,0.4417918920516968,0.1046236976981163,-0.056147217750549316,-0.059080369770526886,-0.3371681869029999,-0.07905963063240051,-0.05202363431453705
0,cpsc,iii,18,0.3571479916572571,0.406735360622406,0.3054921329021454,0.3414345383644104,-0.051655858755111694,-0.0653008222579956,0.035942405462265015,-0.13326916098594666,-0.12662845849990845
0,cpsc,iii,19,0.3930174708366394,0.4222748279571533,0.22304119169712067,0.23264892399311066,-0.16997627913951874,-0.18962590396404266,0.00960773229598999,-0.5046355724334717,-0.47633612155914307
0,cpsc,iii,20,0.30524224042892456,0.3703463077545166,0.467530220746994,0.5797492861747742,0.16228798031806946,0.20940297842025757,0.11221906542778015,0.37095656991004944,0.3385457694530487
0,cpsc,iii,21,0.2750396728515625,0.36255770921707153,0.2679007351398468,0.34792739152908325,-0.007138937711715698,-0.014630317687988281,0.08002665638923645,-0.07265830039978027,-0.08406280726194382
0,cpsc,iii,22,0.46867191791534424,0.818638026714325,0.5300140976905823,0.8908810019493103,0.06134217977523804,0.07224297523498535,0.360866904258728,0.11352505534887314,0.09121598303318024
0,cpsc,iii,23,0.3800235688686371,0.39483198523521423,0.32025936245918274,0.31560277938842773,-0.059764206409454346,-0.0792292058467865,-0.004656583070755005,-0.173761785030365,-0.17308151721954346
0,cpsc,iii,24,0.42317554354667664,0.695152997970581,0.37655672430992126,0.643803060054779,-0.04661881923675537,-0.051349937915802,0.2672463357448578,-0.07601400464773178,-0.06067224219441414
0,cpsc,iii,25,0.36457258462905884,0.4942816495895386,0.346347451210022,0.4738054871559143,-0.018225133419036865,-0.020476162433624268,0.12745803594589233,-0.03808438405394554,-0.03141620010137558
0,cpsc,iii,26,0.38140249252319336,0.1540694683790207,0.3293581008911133,0.0939684808254242,-0.05204439163208008,-0.0601009875535965,-0.2353896200656891,-0.11403650045394897,-0.08043362945318222
0,cpsc,iii,27,0.28704893589019775,0.253845751285553,0.231173574924469,0.177969291806221,-0.05587536096572876,-0.07587645947933197,-0.053204283118247986,-0.21710018813610077,-0.19858694076538086
0,cpsc,iii,28,0.38071462512016296,0.4009764790534973,0.29798486828804016,0.3007487952709198,-0.0827297568321228,-0.10022768378257751,0.0027639269828796387,-0.20435817539691925,-0.19970481097698212
0,cpsc,iii,29,0.3206384778022766,0.5177963972091675,0.28907227516174316,0.46917402744293213,-0.03156620264053345,-0.04862236976623535,0.18010175228118896,-0.1382802277803421,-0.1355571299791336
0,cpsc,iii,30,0.3135673999786377,0.32779598236083984,0.3263307511806488,0.3416024446487427,0.012763351202011108,0.013806462287902832,0.015271693468093872,0.020379554480314255,0.01600431464612484
0,cpsc,iii,31,0.32952606678009033,0.3108241558074951,0.5670753717422485,0.5628612637519836,0.2375493049621582,0.2520371079444885,-0.004214107990264893,0.43483009934425354,0.42220309376716614
0,cpsc,iii,32,0.35705482959747314,0.7970775961875916,0.24544888734817505,0.6523019671440125,-0.1116059422492981,-0.1447756290435791,0.4068530797958374,-0.30990320444107056,-0.21357661485671997
0,cpsc,iii,33,0.36677682399749756,0.21554797887802124,0.4321788549423218,0.2917408347129822,0.06540203094482422,0.07619285583496094,-0.1404380202293396,0.12690003216266632,0.11287292093038559
0,cpsc,iii,34,0.3046450614929199,0.1198321208357811,0.2891383171081543,0.10094138234853745,-0.015506744384765625,-0.018890738487243652,-0.18819692730903625,-0.05347753316164017,-0.03585348278284073
0,cpsc,iii,35,0.1647973656654358,0.2617267370223999,0.14954902231693268,0.24087777733802795,-0.015248343348503113,-0.020848959684371948,0.09132875502109528,-0.11145630478858948,-0.10312040150165558
0,cpsc,iii,36,0.25564664602279663,0.16262750327587128,0.27652397751808167,0.18906868994235992,0.020877331495285034,0.026441186666488647,-0.08745528757572174,0.06343311071395874,0.08595842123031616
0,cpsc,iii,37,0.40582630038261414,0.2805235981941223,0.26661619544029236,0.1385451704263687,-0.13921010494232178,-0.1419784277677536,-0.12807102501392365,-0.36108288168907166,-0.34182557463645935
0,cpsc,iii,38,0.3080463707447052,0.2593153715133667,0.2104078084230423,0.1363663226366043,-0.0976385623216629,-0.12294904887676239,-0.07404148578643799,-0.3380105495452881,-0.31748083233833313
0,cpsc,iii,39,0.2676137685775757,0.2890344262123108,0.20912504196166992,0.2083173394203186,-0.05848872661590576,-0.08071708679199219,-0.0008077025413513184,-0.2122177630662918,-0.19109442830085754
0,cpsc,iii,40,0.37238943576812744,0.24420082569122314,0.44140738248825073,0.3262448310852051,0.06901794672012329,0.08204400539398193,-0.11516255140304565,0.1545199602842331,0.15064436197280884
0,cpsc,iii,41,0.33530521392822266,0.4016011357307434,0.3072856366634369,0.3674997389316559,-0.028019577264785767,-0.034101396799087524,0.060214102268218994,-0.0985812172293663,-0.09945365786552429
